TSNE Element 1,TSNE Element 2,TSNE Element 3,stimulus,restimulus
28.10729,-21.254837,22.706476,0,0
27.938797,-21.741179,23.259665,0,0
28.102795,-21.257685,22.7032,0,0
-29.983158,-2.3986933,-13.104067,0,0
-27.961206,0.6298645,-14.493892,0,0
-27.9028,0.39165795,-14.474322,0,0
-29.972212,-2.8220837,-14.922625,0,0
-30.098864,-3.3060174,-15.590347,0,0
-31.631016,-4.933121,-14.503578,0,0
-31.849634,-4.586774,-13.411915,0,0
-32.401104,-5.033317,-13.319083,0,0
-29.897764,-3.0027587,-15.374939,0,0
-30.041138,-2.7464356,-14.960493,0,0
-31.835516,-4.5083137,-12.991057,0,0
-33.76239,-6.963344,-13.4304905,0,0
24.320023,-7.750608,35.18797,0,0
-39.246906,-4.53678,-0.60632086,0,0
-42.06638,-0.39185205,7.938598,0,0
-41.780437,-0.037312932,8.018822,0,0
23.54677,-7.904985,35.032185,0,0
22.45108,0.18876459,32.07001,0,0
-33.477886,-5.9896812,-7.236437,0,0
-44.32582,5.2364845,0.23856474,0,0
29.156914,20.202272,-21.62775,0,0
-18.700787,-36.47588,15.319789,0,0
27.593046,-21.508804,22.764482,0,0
28.782227,24.660719,-4.0147943,0,0
-20.482054,2.4859982,31.279211,0,0
-16.904625,-9.30677,31.707922,0,0
-10.525406,-1.1609089,23.754112,0,0
-10.489513,-1.1913248,23.739054,0,0
-16.952322,-2.7791502,31.710375,0,0
-34.14745,0.41367272,-8.359548,0,0
-34.919857,-1.0442357,-7.2754846,0,0
-28.93164,18.063232,23.447351,0,0
-35.022995,-29.41323,4.5917883,0,0
35.59162,7.242172,-15.148636,0,0
-25.502459,4.9305468,23.923405,0,0
-44.32581,5.2364993,0.2385647,0,0
28.108252,-21.257124,22.705576,0,0
-30.173632,-6.670152,25.727898,0,0
27.600138,-21.226852,23.025724,0,0
-11.856433,8.018504,34.81955,0,0
-35.895607,-0.41275656,-7.290158,0,0
-35.41025,-2.017714,-6.4802513,0,0
-32.366165,-2.8450181,-7.5978813,0,0
-29.982893,-3.9614584,-12.075164,0,0
-29.872469,-4.0476313,-12.221234,0,0
-31.542963,-5.843027,-11.102745,0,0
-28.527763,0.05916374,-14.229191,0,0
-27.959265,1.7297143,-14.827325,0,0
-28.066711,1.0305086,-14.531461,0,0
-27.634733,2.3453903,-15.128389,0,0
-27.35927,2.274431,-15.210642,0,0
-28.127115,0.6297002,-14.417725,0,0
-29.38738,-0.6910268,-13.766737,0,0
-28.055557,0.3479449,-14.427662,0,0
-27.649244,1.0574448,-14.681708,0,0
-26.749838,1.7525023,-15.184228,0,0
-27.963398,0.63755894,-14.483185,0,0
-30.331987,-3.0756257,-13.596732,0,0
-29.792862,0.9864115,-13.422456,0,0
-29.268261,4.0197015,-15.746742,0,0
-29.987635,4.738981,-16.271862,0,0
-30.142332,3.95273,-15.138,0,0
-30.174856,2.3585896,-13.761974,0,0
-30.339247,0.43147513,-12.647439,0,0
-31.375273,-0.129071,-10.627262,0,0
-29.682777,-2.5988464,-14.173903,0,0
-29.713017,-3.2505734,-15.917012,0,0
-31.28468,-5.370039,-15.159465,0,0
-35.95045,-7.784196,-13.258361,0,0
-13.330494,-11.802807,39.412086,0,0
22.213545,0.25808793,32.355312,0,0
-33.477898,-5.9896674,-7.2364383,0,0
-32.89243,-4.391271,-8.555268,0,0
35.59162,7.242172,-15.148636,0,0
22.213545,0.25808793,32.355312,0,0
-35.793095,-22.076586,-3.3736036,0,0
-18.52384,-27.986263,25.804188,0,0
-25.505188,4.717639,23.762781,0,0
29.252422,19.873663,-21.955227,0,0
-30.173632,-6.670152,25.727898,0,0
-11.8498,8.065575,34.807594,0,0
-28.929834,18.063232,23.447746,0,0
-32.51089,-1.6420143,19.881857,0,0
35.746273,7.112403,-15.369249,0,0
-32.51089,-1.6420143,19.881857,0,0
29.156914,20.202272,-21.62775,0,0
28.094374,-21.261023,22.697865,0,0
-37.65581,-4.8179255,12.573369,0,0
-33.675304,-7.05108,-13.344287,0,0
-34.260258,-8.751722,-17.281282,0,0
-44.688915,-16.871147,-15.788015,0,0
-42.158485,-0.3950757,7.9520087,0,0
23.772816,-7.443211,34.719765,0,0
-33.27932,-7.682517,-19.685438,0,0
-23.941235,-7.299025,-23.347202,0,0
-23.886162,-6.7971554,-22.689028,0,0
-13.561633,-3.4676213,-6.440982,0,0
-9.8176985,-2.1620152,-4.473662,0,0
-5.494314,-9.234594,-5.282416,0,0
-7.6169624,-11.793294,-6.0053997,0,0
-38.385643,8.893715,-5.41101,0,0
-10.679291,-16.665392,-12.635966,0,0
-11.833042,-19.185892,-14.679696,0,0
-10.221107,-20.835192,-12.243074,0,0
-11.89183,-21.748734,-9.046303,0,0
-12.377036,-19.963629,-8.579947,0,0
-13.726356,-20.502434,-10.530693,0,0
-15.3530655,-21.029661,-10.343866,0,0
-18.428385,-23.54819,-15.395692,0,0
-19.986818,-20.381477,-15.6625185,0,0
-19.6155,-20.584707,-15.542176,0,0
-15.370341,-23.015455,-15.34837,0,0
-16.010204,-22.264938,-16.307768,0,0
-19.518896,-22.344883,-16.58273,0,0
-21.97514,-22.23314,-17.019514,0,0
-23.959356,-19.456066,-19.453217,0,0
-28.831377,-17.663954,-21.048147,0,0
-31.567722,-19.349178,-20.96178,0,0
-30.847273,-16.534224,-21.960924,0,0
-36.194805,-27.209553,-14.042504,0,0
-35.03851,-17.773542,-21.288733,0,0
-20.996653,-8.282672,-21.928041,0,0
-13.711687,-5.1019683,-19.513851,0,0
-13.089746,-5.44994,-19.669643,0,0
-12.97983,-6.2165556,-19.701832,0,0
-14.915627,-8.766154,-22.372492,0,0
-17.821033,-9.268314,-23.861551,0,0
-23.050266,-11.009328,-26.61751,0,0
-22.320988,-11.922944,-25.646278,0,0
-23.40727,-7.1966805,-21.861584,0,0
-19.18115,-0.21872078,-18.762493,0,0
-19.20076,-0.2300669,-18.792168,0,0
-18.92392,-0.43293875,-19.08624,0,0
-14.84865,-5.207277,-19.678503,0,0
-14.913788,-5.5742936,-19.73209,0,0
-14.655609,-5.5222754,-19.664726,0,0
-16.156116,-8.146377,-20.706427,0,0
-16.801342,-10.743963,-21.138155,0,0
-22.354782,-10.428351,-19.578749,0,0
-27.141947,-12.231271,-16.484013,0,0
-21.649303,-35.0305,-10.741053,0,0
-30.946836,-24.299517,8.197525,0,0
-30.94665,-24.299568,8.197719,0,0
-35.13374,-18.297935,8.961127,0,0
-17.923073,-38.13073,-10.796258,0,0
-29.419495,-9.302011,-14.805714,0,0
-25.057858,-7.4802837,-19.289528,0,0
-23.781252,-7.6163955,-20.477852,0,0
-27.818308,-9.983587,-19.422274,0,0
-35.970455,-23.162329,-20.954775,0,0
-31.224024,-6.5406337,-15.353448,0,0
-31.097631,-6.616845,-15.518468,0,0
-27.731377,-10.502951,-15.289078,0,0
-23.089499,-25.664457,-15.271399,0,0
-20.450724,-29.036373,-12.609288,0,0
-16.60954,-33.531864,-8.609903,0,0
-31.984251,-23.602531,14.236046,0,0
-41.80941,4.666386,-0.69703734,0,0
-32.176098,-28.923845,2.8790362,0,0
-33.19772,-28.39041,1.7675023,0,0
-30.43144,-8.984537,-14.860248,0,0
-25.768185,-8.642917,-18.561857,0,0
-23.256289,-8.767123,-16.566113,0,0
-22.009775,-9.199307,-16.913181,0,0
-22.283941,-9.5093155,-16.279705,0,0
-22.414082,-10.236833,-17.296467,0,0
-22.044506,-9.576603,-19.315718,0,0
-23.889677,-7.329086,-19.220364,0,0
-25.481398,-7.037513,-18.980734,0,0
-28.266232,-6.37378,-18.27564,0,0
-28.887741,-6.6615434,-18.546852,0,0
-27.158466,-7.825589,-19.303244,0,0
-25.474756,-10.5507965,-18.765196,0,0
-22.024431,-17.297403,-20.689528,0,0
-22.823755,-16.901142,-21.639305,0,0
-24.164753,-17.934752,-21.374454,0,0
-27.99161,-18.087029,-20.647766,0,0
-28.831772,-17.664133,-21.049377,0,0
-31.3914,-27.913586,-15.368549,0,0
-33.142963,-32.708214,-10.621679,0,0
-31.752663,-8.261008,-14.137628,0,0
-29.33982,-3.949402,-14.408246,0,0
-29.275883,-4.0077977,-14.215373,0,0
-29.995316,-3.2843962,-14.169327,0,0
-31.849585,-4.5868154,-13.411959,0,0
-33.819103,-6.4486375,-13.317833,0,0
-43.67471,-20.261438,-1.5737721,0,0
-33.75312,-27.856657,-14.865427,0,0
-27.991457,-18.08696,-20.647774,0,0
-24.164677,-17.934769,-21.374369,0,0
-27.345655,-10.182063,-19.265774,0,0
-28.001741,-8.358367,-18.488817,0,0
-30.735867,-8.649513,-17.516388,0,0
-31.659634,-10.782409,-27.037937,0,0
-27.693855,-8.381465,-29.435286,0,0
-21.660582,-8.455283,-27.527151,0,0
-19.843975,-8.275023,-26.588987,0,0
-19.957258,-8.873117,-25.991655,0,0
-23.694769,-7.2113457,-22.217249,0,0
-25.547295,2.5607271,-15.933931,0,0
-25.56451,4.0988493,-17.03066,0,0
-25.508766,4.200919,-17.201006,0,0
-25.555698,3.919532,-16.952452,0,0
-26.380613,2.5076394,-15.741443,0,0
-27.511131,1.1716976,-14.851206,0,0
-29.398758,-2.9751828,-16.829422,0,0
-29.71303,-3.2505734,-15.9170265,0,0
-30.702995,-4.4840393,-15.078243,0,0
-31.856218,-5.719914,-15.50892,0,0
-42.001286,-0.31001782,7.743762,0,0
24.320023,-7.750608,35.18797,0,0
-13.873019,-11.895785,38.903576,0,0
-25.502365,4.927391,23.922106,0,0
25.890364,6.6680727,-27.49873,0,0
-25.414452,-39.262268,-6.1026216,0,0
-32.516743,-9.918155,-11.84047,0,0
-29.442053,-6.0852947,-13.961671,0,0
-29.82451,-2.3482528,-13.174227,0,0
-29.623436,-1.6509128,-13.602631,0,0
-29.21396,-2.7809541,-14.812345,0,0
-29.460243,-3.1905713,-16.660252,0,0
-29.517632,-3.293578,-17.127565,0,0
-29.516182,-3.3775089,-16.358076,0,0
-29.61862,-3.3045592,-15.994204,0,0
-29.774128,-3.5460699,-14.485523,0,0
-31.692516,-4.3942175,-12.4797325,0,0
-33.48224,-6.3761945,-7.6285605,0,0
39.107613,21.633059,-6.6609187,0,0
-31.36546,-6.3712287,-15.287601,0,0
-29.774174,-3.5459926,-14.485499,0,0
-30.26205,-2.9201944,-13.135847,0,0
-30.974766,-3.4368575,-12.46629,0,0
-31.713871,-4.3491855,-12.479237,0,0
-33.528984,-5.944912,-11.176869,0,0
-30.994156,-3.9962015,-14.199296,0,0
-30.160074,-3.2471092,-15.173243,0,0
-30.28743,-3.207915,-14.16852,0,0
-31.03027,-3.9188588,-13.890629,0,0
-28.055387,0.34796745,-14.4276705,0,0
-27.524002,3.3827968,-15.846446,0,0
-27.523975,3.3827524,-15.846368,0,0
-27.22489,3.359055,-15.975509,0,0
-27.523975,3.38278,-15.8463125,0,0
-27.87614,3.4165978,-15.74531,0,0
-28.750372,3.182139,-15.255375,0,0
-30.031725,2.2995977,-13.798793,0,0
-31.08267,0.25190338,-11.707187,0,0
-32.61189,-0.6862305,-9.313456,0,0
-34.054413,-2.4467607,-7.2213545,0,0
-31.173382,-1.703436,-11.303599,0,0
-30.800642,0.1741113,-12.000117,0,0
-30.95911,0.20277344,-11.827594,0,0
-31.082623,0.2519538,-11.707153,0,0
-31.298376,2.5787985,-13.437373,0,0
-31.72504,4.658893,-15.195506,0,0
-31.725029,4.658889,-15.195481,0,0
-30.447878,4.0201397,-15.064934,0,0
-30.46232,2.671548,-13.922357,0,0
-28.97516,3.8963761,-15.779845,0,0
-28.277262,6.516086,-20.293915,0,0
-27.621136,7.202409,-20.556446,0,0
-25.793692,6.3515854,-19.650873,0,0
-24.987118,5.936628,-19.472912,0,0
-25.586203,3.9618208,-16.933332,0,0
-26.442654,2.1449645,-15.447088,0,0
-26.643572,1.2272762,-14.937283,0,0
-30.139793,-4.082467,-18.372402,0,0
-30.14497,-4.098101,-18.4843,0,0
-21.932652,2.5107071,-14.986912,0,0
-20.7128,2.858125,-16.110031,0,0
-20.682606,2.8602731,-16.131195,0,0
-20.95004,2.7753668,-15.717789,0,0
-21.807613,2.4099143,-14.952618,0,0
-30.20254,-4.165271,-18.940826,0,0
-30.072338,-3.926965,-18.31019,0,0
-25.695967,3.8717303,-16.74062,0,0
-26.385698,5.5817513,-18.429667,0,0
-27.358107,4.586316,-16.936878,0,0
-28.750372,3.1821392,-15.255376,0,0
-28.707842,1.156487,-14.228079,0,0
-28.214857,0.26822767,-14.371517,0,0
-29.540325,-1.8105578,-14.197616,0,0
-30.392805,-2.9568818,-13.066752,0,0
-30.5192,-2.9000378,-12.652133,0,0
-30.994802,-3.069546,-11.777959,0,0
-30.958912,-3.2917104,-12.091652,0,0
-29.36449,-0.83315396,-13.804792,0,0
-29.377718,-0.75876373,-13.78556,0,0
-29.54917,-1.580896,-13.878793,0,0
-29.737364,-2.769286,-14.183058,0,0
-29.398403,-2.9751675,-16.829424,0,0
-29.557213,-3.299175,-17.1664,0,0
-30.398952,-4.4440804,-15.981212,0,0
-33.999767,-6.6360145,-14.3071785,0,0
-35.950367,-7.784196,-13.2588215,0,0
23.546724,-7.9043345,35.032253,0,0
-43.748863,-21.85589,-9.606112,0,0
-45.034077,-12.554545,-2.118962,0,0
-13.513416,-11.994413,38.703953,0,0
22.213545,0.25808793,32.355312,0,0
-25.504276,5.0550613,23.951426,0,0
-25.505188,4.717639,23.762781,0,0
-31.237778,-7.5742893,-12.380795,0,0
-27.22228,-7.000455,-17.081059,0,0
-27.658442,-7.6391516,-18.221315,0,0
-28.862162,-8.887967,-20.21622,0,0
-26.038383,-9.1605425,-18.748331,0,0
-25.765898,-10.5793495,-18.567076,0,0
-28.675634,-12.035754,-16.01722,0,0
-27.82935,-22.826607,-19.20722,0,0
-17.968557,-13.657985,-19.708242,0,0
-15.542967,-12.627102,-19.19165,0,0
-15.860879,-13.113625,-19.019133,0,0
-16.017324,-15.285665,-18.755793,0,0
-14.542139,-17.600206,-18.291418,0,0
-15.4498,-18.585112,-17.85033,0,0
-16.017324,-15.285665,-18.755793,0,0
-18.883259,-16.46148,-19.070133,0,0
-20.197517,-15.039277,-20.657349,0,0
-22.579851,-15.406572,-22.874685,0,0
-28.831772,-17.664133,-21.049377,0,0
-32.369106,-19.07297,-21.125853,0,0
-38.20417,-25.961317,-12.922989,0,0
-35.410217,-18.951788,-14.022787,0,0
-28.688864,-24.340923,-16.015783,0,0
-23.533854,-24.302687,-16.008886,0,0
-21.68741,-28.016144,-13.412085,0,0
-24.643377,-22.500341,-17.836765,0,0
-27.69026,-20.292433,-19.48089,0,0
-30.01044,-12.047829,-16.918377,0,0
14.851292,3.5285633,-19.370974,1,1
28.228819,-3.0870612,-12.0971985,1,1
28.951132,-2.7499661,-11.408731,1,1
29.118992,-2.6615329,-11.182251,1,1
29.127192,-2.6053839,-11.080574,1,1
31.42658,-9.384362,-3.3756638,1,1
33.237434,-13.61394,0.5793903,1,1
32.967716,-13.753856,0.8760835,1,1
32.987144,-13.762572,0.92013866,1,1
33.00804,-13.760615,0.91721344,1,1
33.037106,-13.750378,0.8855077,1,1
33.178535,-13.701186,0.7833472,1,1
33.35163,-13.654445,0.7489067,1,1
33.438797,-13.626258,0.76624405,1,1
24.969284,-22.110832,12.287534,1,1
11.269838,-23.247805,20.551239,1,1
12.361011,-23.621037,19.828493,1,1
12.423253,-23.661842,19.724388,1,1
12.432566,-23.684322,19.654968,1,1
12.407691,-23.68398,19.649368,1,1
12.253247,-23.538221,20.023058,1,1
12.009829,-23.321627,20.51135,1,1
11.806356,-23.24237,20.682302,1,1
11.575741,-23.239035,20.727493,1,1
11.239716,-23.239471,20.772429,1,1
11.127825,-23.22171,20.80569,1,1
11.204183,-23.203648,20.767445,1,1
11.45103,-23.19635,20.758892,1,1
12.216043,-23.096207,20.8858,1,1
12.280919,-23.112034,20.849943,1,1
12.274458,-23.083298,20.89851,1,1
12.170236,-23.07566,20.9145,1,1
11.853928,-23.109682,20.862864,1,1
11.409168,-23.153948,20.783875,1,1
11.161529,-23.189447,20.717787,1,1
11.034455,-23.220016,20.660866,1,1
29.18631,-19.254503,12.298148,1,1
29.186361,-19.207493,12.307039,1,1
29.17089,-19.21333,12.3084955,1,1
29.102037,-19.279198,12.362404,1,1
29.009281,-19.369776,12.432758,1,1
28.896708,-19.47582,12.504567,1,1
25.629179,-22.901457,12.808471,1,1
25.557886,-22.932383,12.788208,1,1
25.523933,-22.928791,12.768774,1,1
25.574223,-23.208822,12.7847395,1,1
5.0830736,-21.346941,24.59557,1,1
4.889781,-21.37352,24.70313,1,1
5.0043516,-21.948936,24.173393,1,1
5.0685115,-22.088459,24.021334,1,1
5.0807724,-22.091536,24.011599,1,1
5.0814095,-22.031412,24.059837,1,1
5.0769405,-21.867233,24.196766,1,1
5.061067,-21.714891,24.329512,1,1
5.0739946,-21.636553,24.381468,1,1
5.1176815,-21.684284,24.320946,1,1
5.1057405,-21.842236,24.200706,1,1
5.112349,-21.841946,24.197191,1,1
5.0289946,-21.689804,24.37167,1,1
4.9218893,-21.552055,24.55023,1,1
4.9022813,-21.476477,24.621681,1,1
4.970993,-21.47409,24.576315,1,1
5.077098,-21.453999,24.528845,1,1
5.1076674,-21.400898,24.55663,1,1
5.021644,-21.498932,24.529606,1,1
5.044069,-21.565403,24.462221,1,1
5.091041,-21.578854,24.423517,1,1
5.072854,-21.514631,24.486086,1,1
4.9771533,-21.41371,24.623701,1,1
4.2957487,-21.00607,25.390635,1,1
4.2260528,-20.96831,25.473724,1,1
4.455067,-21.154295,25.177193,1,1
4.6172934,-21.280336,24.96855,1,1
4.7323036,-21.336958,24.844982,1,1
4.611503,-21.244907,25.000519,1,1
3.9493213,-20.788397,25.846907,1,1
3.9044197,-20.755058,25.903046,1,1
3.898589,-20.759245,25.908833,1,1
3.8733094,-20.746376,25.943731,1,1
3.886239,-20.748388,25.924135,1,1
3.8835695,-20.740866,25.92627,1,1
3.78598,-20.655514,26.072996,1,1
3.7367656,-20.653805,26.147518,1,1
3.6824594,-20.669619,26.22614,1,1
3.3634207,-20.658894,26.694769,1,1
2.8970096,-20.89093,27.3145,1,1
2.830028,-20.972612,27.367218,1,1
2.8038116,-21.038149,27.359539,1,1
2.7157195,-21.210598,27.358303,1,1
2.669761,-21.330997,27.327192,1,1
2.6673965,-21.353086,27.3105,1,1
2.6596694,-21.372383,27.305359,1,1
5.733661,-27.523466,-27.242193,1,1
5.743102,-27.556995,-27.294655,1,1
5.7456803,-27.579206,-27.335266,1,1
5.7367167,-27.61262,-27.402248,1,1
5.7460723,-27.632633,-27.44299,1,1
5.8404613,-27.657913,-27.510277,1,1
5.9808817,-27.704525,-27.611631,1,1
6.1550183,-27.580437,-27.792524,1,1
6.494276,-24.641033,-30.87108,1,1
6.427788,-24.496628,-30.953403,1,1
6.482637,-24.534792,-30.877296,1,1
6.6661367,-24.768415,-30.65158,1,1
7.2656746,-25.678062,-29.98322,1,1
7.568071,-26.168177,-29.751266,1,1
7.8862724,-26.624195,-29.48196,1,1
8.42343,-26.403605,-29.345251,1,1
7.975886,-26.24143,-29.661524,1,1
7.336174,-26.063591,-30.229494,1,1
5.169536,-23.951157,-32.672962,1,1
5.013271,-23.931952,-32.7822,1,1
5.017209,-23.967588,-32.729557,1,1
4.9267597,-23.913437,-32.73743,1,1
4.9318233,-23.735884,-32.787884,1,1
5.012952,-23.633247,-32.77659,1,1
5.1045713,-23.582033,-32.754906,1,1
5.1798205,-23.524998,-32.730667,1,1
4.2445574,-21.982107,-35.21809,1,1
4.1298857,-21.839169,-35.4839,1,1
4.1095695,-21.810678,-35.59744,1,1
4.0746207,-21.812317,-35.698483,1,1
4.1323047,-21.908493,-35.548946,1,1
4.2751317,-22.046228,-35.148453,1,1
4.2815876,-22.098722,-35.086517,1,1
3.537728,-22.08649,-36.26489,1,1
3.4231606,-21.911036,-36.42755,1,1
3.3826578,-21.792576,-36.47998,1,1
3.404892,-21.579721,-36.38539,1,1
3.4148307,-21.340178,-36.176167,1,1
3.4061346,-21.119934,-36.086983,1,1
3.3976424,-20.956137,-36.219513,1,1
3.3885183,-20.89237,-36.272663,1,1
3.389639,-20.90533,-36.241516,1,1
3.4040887,-20.937649,-36.125618,1,1
3.4190605,-20.955631,-36.038197,1,1
3.4235165,-20.976564,-35.92178,1,1
3.4048264,-20.96508,-35.828926,1,1
3.4192708,-20.998112,-35.88381,1,1
3.329129,-20.955593,-35.658344,1,1
3.0210514,-20.761902,-35.083145,1,1
2.98605,-20.742565,-35.01835,1,1
2.8373106,-20.648888,-34.91435,1,1
2.5321279,-20.494291,-34.62401,1,1
2.3497355,-20.420803,-34.48844,1,1
2.4015038,-20.442814,-34.525448,1,1
2.4370894,-20.45892,-34.55244,1,1
2.3962908,-20.441727,-34.52337,1,1
2.3514497,-20.42392,-34.49029,1,1
2.2093973,-20.382313,-34.408585,1,1
2.0949163,-20.351255,-34.345848,1,1
1.7591609,-20.27419,-34.1737,1,1
1.4746026,-20.218906,-34.039566,1,1
1.3495206,-20.195337,-33.97962,1,1
1.2755805,-20.181828,-33.946457,1,1
1.2025605,-20.176542,-33.931267,1,1
1.0564045,-20.171778,-33.903866,1,1
0.46075717,-20.165756,-33.79644,1,1
0.10923773,-20.165335,-33.73515,1,1
0.07929102,-20.164833,-33.734447,1,1
0.08403086,-20.163038,-33.740097,1,1
0.0884972,-20.163052,-33.74388,1,1
0.084308445,-20.161907,-33.74658,1,1
0.09055781,-20.162853,-33.747204,1,1
0.088337354,-20.163132,-33.740814,1,1
0.0733294,-20.163555,-33.731857,1,1
0.061150167,-20.166096,-33.725235,1,1
0.04005538,-20.16772,-33.720448,1,1
0.013431327,-20.16911,-33.71076,1,1
-0.010247066,-20.170675,-33.70283,1,1
-0.03283566,-20.171972,-33.696312,1,1
-0.05879605,-20.174314,-33.689682,1,1
-0.14210239,-20.184666,-33.66814,1,1
-0.25597307,-20.205765,-33.63733,1,1
-0.3953284,-20.24136,-33.596275,1,1
-5.638163,-23.194586,-31.432673,1,1
-5.8125315,-23.291025,-31.49477,1,1
-5.8980494,-23.33583,-31.548649,1,1
-5.871039,-23.511547,-31.671453,1,1
-5.8421617,-23.596857,-31.712318,1,1
-5.84434,-23.607382,-31.720057,1,1
-5.8699694,-23.620766,-31.744087,1,1
-5.9046726,-23.618074,-31.767897,1,1
-5.8863807,-23.669292,-31.79074,1,1
-5.8969116,-23.743902,-31.847517,1,1
-5.907021,-23.795696,-31.884668,1,1
-5.929069,-24.022999,-32.02591,1,1
-5.8941298,-24.130125,-32.03953,1,1
-5.856623,-24.24225,-32.05497,1,1
-5.8155,-24.45799,-32.114414,1,1
-5.807429,-24.586168,-32.16774,1,1
-5.778238,-24.770447,-32.221928,1,1
-5.722486,-25.123756,-32.316288,1,1
-5.6682644,-25.234793,-32.295895,1,1
-5.6007514,-25.430044,-32.29427,1,1
-5.5938706,-25.413784,-32.276737,1,1
-5.5308576,-25.647476,-32.29508,1,1
-5.3881345,-26.162876,-32.330006,1,1
-5.362308,-26.238476,-32.32729,1,1
-5.289767,-26.290056,-32.244198,1,1
-5.1655283,-26.47288,-32.151196,1,1
-5.036819,-26.64587,-32.05062,1,1
-5.0078177,-26.688545,-32.030807,1,1
-4.864575,-26.883429,-31.927935,1,1
-4.740271,-27.041924,-31.832008,1,1
-4.632039,-27.176329,-31.769396,1,1
-4.5651774,-27.250628,-31.762514,1,1
-4.5433416,-27.273804,-31.760166,1,1
-4.569256,-27.248217,-31.746737,1,1
-4.5586953,-27.26952,-31.685038,1,1
-4.5467415,-27.285736,-31.664238,1,1
-4.529871,-27.309177,-31.630491,1,1
-4.52447,-27.31773,-31.614147,1,1
-4.5146093,-27.326992,-31.617125,1,1
-4.4679246,-27.392868,-31.516035,1,1
-4.348068,-27.555439,-31.279707,1,1
-4.1310716,-27.865063,-30.814846,1,1
-3.9081247,-28.259401,-30.207006,1,1
-3.773555,-28.638237,-29.56957,1,1
-3.7585685,-28.920904,-29.070528,1,1
-3.8637972,-29.252054,-28.47051,1,1
-4.120273,-29.636854,-27.758877,1,1
-4.3728027,-29.866037,-27.35295,1,1
-4.541796,-29.97701,-27.163435,1,1
-4.595914,-30.007994,-27.114317,1,1
-4.599289,-30.006578,-27.119734,1,1
-4.6373644,-30.025879,-27.093122,1,1
-4.7717066,-30.101524,-26.96626,1,1
-6.7128005,-31.026001,-24.589853,1,1
-6.9293323,-31.024054,-24.328688,1,1
-7.193945,-30.915562,-24.091019,1,1
-7.5978136,-30.876505,-23.656122,1,1
-8.165327,-30.961554,-22.980433,1,1
-8.440516,-30.95898,-22.697628,1,1
-8.440537,-30.994064,-22.565527,1,1
-8.463722,-31.015303,-22.399048,1,1
-8.754063,-30.917875,-22.330072,1,1
-9.993954,-31.249664,-22.209927,1,1
-10.448416,-31.436937,-22.163404,1,1
-10.622862,-31.571953,-22.103346,1,1
-10.717749,-31.678087,-22.044617,1,1
-10.873842,-31.71679,-22.030228,1,1
-11.106254,-31.6229,-22.100546,1,1
-0.59343225,-24.497023,-7.7769976,1,1
-0.53378665,-24.484951,-7.7950625,1,1
-0.5043248,-24.479708,-7.804704,1,1
-0.4701087,-24.483873,-7.817633,1,1
-0.43047544,-24.493427,-7.835699,1,1
-0.3515523,-24.500881,-7.8657293,1,1
-0.22884186,-24.504766,-7.898472,1,1
0.0372851,-24.4905,-7.9769573,1,1
0.6022103,-24.421366,-8.1991415,1,1
1.3366349,-24.252352,-8.552118,1,1
1.6604271,-24.067974,-8.7162485,1,1
4.0652475,-15.9084015,-3.4261713,1,1
3.9825337,-15.906001,-3.5619297,1,1
3.9040716,-15.920988,-3.6968958,1,1
13.994757,19.631477,-23.265886,1,1
14.009449,19.647959,-23.325119,1,1
13.965646,19.743729,-23.255962,1,1
11.384706,21.109858,-23.710848,1,1
11.273114,21.195322,-23.702568,1,1
11.203682,21.264292,-23.679749,1,1
11.129588,21.363865,-23.598116,1,1
10.990105,21.61643,-23.338829,1,1
13.587019,20.03835,-19.407074,1,1
14.033919,18.693466,-21.171785,1,1
14.16181,18.61231,-21.365534,1,1
14.321641,18.892895,-21.444614,1,1
14.485891,19.767288,-21.670567,1,1
14.449874,19.993227,-21.66389,1,1
12.505625,21.060566,-21.081217,1,1
11.069808,22.25247,-19.324924,1,1
8.683079,21.492807,-17.061495,1,1
8.737516,21.119299,-17.807072,1,1
14.689684,25.705576,-10.81534,1,1
14.721906,25.67509,-10.816176,1,1
12.054895,20.0689,-19.327345,1,1
12.090178,20.254047,-18.015844,1,1
12.458869,20.663252,-15.323258,1,1
19.03619,20.163929,-7.6016273,1,1
23.686882,10.286808,-5.9020085,1,1
24.4759,9.462291,-5.1697187,1,1
24.360914,9.299893,-4.981031,1,1
23.674717,9.508783,-4.615621,1,1
22.225607,10.219456,-4.225982,1,1
20.289103,9.575638,-5.7849865,1,1
20.797018,8.248089,-6.0869193,1,1
20.821796,8.041317,-6.1773944,1,1
21.134172,8.155871,-6.312492,1,1
23.191977,8.314937,-6.9373975,1,1
30.135199,-1.0354632,-0.70543355,1,1
30.282251,-0.98606706,-0.7442755,1,1
29.964252,-0.9610499,-0.9484882,1,1
28.060009,-0.46379948,-1.3347073,1,1
23.757528,6.5705123,-5.823899,1,1
21.521416,5.927885,-5.039069,1,1
20.488037,7.010595,-5.412257,1,1
20.31332,7.335505,-5.5950236,1,1
15.462327,9.066097,-5.2669334,1,1
15.138918,8.45018,-5.1637893,1,1
16.538979,2.5025818,-11.558388,1,1
22.849234,-1.9638447,-10.686333,1,1
22.881086,-1.97565,-11.072153,1,1
22.88444,-2.565949,-11.734096,1,1
16.11206,-0.15756847,-16.145348,1,1
14.638532,-0.9130217,-15.471082,1,1
11.475998,-1.1404879,-17.755066,1,1
7.1885138,-0.48420253,-17.091982,1,1
5.3300805,-1.6457506,-18.306168,1,1
5.303076,-2.3074574,-18.414646,1,1
5.3888955,-4.1252403,-18.502829,1,1
10.269404,-3.5906935,-18.057957,1,1
14.38276,-1.3352982,-18.088556,1,1
22.904905,-1.9419037,-11.026157,1,1
26.573746,-1.5825984,-8.432072,1,1
26.19568,-1.4381683,-8.130578,1,1
26.441618,-1.4617004,-8.4569845,1,1
26.96213,-1.6056684,-8.711005,1,1
28.184994,-1.9454081,-8.496106,1,1
28.392473,-2.0067966,-8.545503,1,1
28.117706,-1.8635844,-8.145868,1,1
27.468697,-1.7436128,-7.295899,1,1
26.806404,-1.6823307,-6.9537315,1,1
29.614382,-3.4635932,-9.3391905,1,1
33.93243,-6.7270813,-11.569591,1,1
34.26547,-7.078668,-11.465931,1,1
34.41614,-8.18002,-10.256475,1,1
34.366753,-9.177678,-8.092778,1,1
34.285168,-9.362753,-7.913116,1,1
35.90674,-10.952673,-10.912754,1,1
35.921837,-11.002745,-11.054462,1,1
35.885254,-10.949469,-11.058574,1,1
34.466465,-8.657177,-10.483237,1,1
33.39501,-5.278763,-11.419958,1,1
29.745747,-3.5699558,-9.458314,1,1
32.20749,-4.645014,-5.984924,1,1
32.378517,-4.8511076,-5.5391984,1,1
32.37943,-4.927743,-5.436381,1,1
32.351433,-4.8810062,-5.49697,1,1
32.210457,-4.6799464,-5.724222,1,1
29.492002,-3.2401319,-8.744816,1,1
28.127007,-2.393158,-8.191032,1,1
27.696737,-2.0643935,-7.5194383,1,1
30.087086,-1.3347117,-2.0130522,1,1
-4.361405,-19.733566,-15.339083,0,0
-6.5854826,-19.82615,-16.58746,0,0
-9.926937,-20.02374,-17.098125,0,0
-14.011545,-20.67719,-17.140316,0,0
-16.824404,-20.998278,-10.128503,0,0
-17.18762,-24.172157,-14.405377,0,0
-11.978441,-17.796219,-7.8815928,0,0
-10.534479,-16.03919,-7.6327553,0,0
-10.128657,-15.1431,-8.60142,0,0
-11.94719,-15.1404085,-9.9589205,0,0
-10.924218,-18.405783,-12.923711,0,0
-9.692182,-19.476948,-17.450737,0,0
-5.397954,-18.41575,-17.532745,0,0
-3.5067513,-12.542651,-13.068787,0,0
-3.660787,-12.625,-13.008736,0,0
-2.9393857,-16.51822,-19.552277,0,0
-6.3264103,-16.410578,-19.38601,0,0
-38.382202,7.2003355,-6.949485,0,0
-6.7718697,-19.824041,-16.644413,0,0
-6.368581,-20.111557,-16.168919,0,0
-6.7716765,-19.824259,-16.644444,0,0
-9.251931,-19.403746,-17.384415,0,0
-13.460534,-20.686281,-17.135017,0,0
-14.741219,-21.407297,-13.360685,0,0
-13.479288,-21.007317,-13.613036,0,0
-14.84938,-22.22264,-12.669989,0,0
-15.206218,-22.698793,-12.530284,0,0
-18.699766,-22.345942,-12.99087,0,0
-22.512514,-25.33285,-15.164717,0,0
-24.88888,-26.786318,-15.56671,0,0
-21.20301,-24.017704,-15.492422,0,0
-15.98095,-23.148346,-15.4122715,0,0
-14.663335,-19.106312,-16.541563,0,0
-14.496365,-20.61968,-17.152672,0,0
-18.584116,-19.045168,-18.10704,0,0
-17.404669,-14.182135,-13.86629,0,0
-16.549757,-12.922384,-12.009973,0,0
-15.845869,-13.113414,-12.376113,0,0
-16.839409,-14.125253,-14.061728,0,0
-16.454834,-17.225006,-18.363338,0,0
-8.134054,-10.159803,-18.50647,0,0
1.9205898,-7.4517007,-21.0487,0,0
4.013096,-7.502384,-20.275904,0,0
3.5996623,-7.758631,-19.87983,0,0
0.82304287,-10.695853,-19.59548,0,0
-1.5617087,-11.823317,-20.080992,0,0
-4.2254386,-12.844963,-20.39578,0,0
-6.515696,-12.483752,-20.107853,0,0
-10.786947,-13.644423,-19.086092,0,0
-15.788037,-16.604424,-18.49163,0,0
-17.033655,-19.378195,-17.733631,0,0
-13.066134,-15.607643,-18.756075,0,0
-10.261979,-10.178645,-17.815285,0,0
-10.417779,-10.056653,-17.823303,0,0
-12.210886,-11.257495,-18.028555,0,0
-14.99766,-11.783189,-19.915968,0,0
-15.501332,-11.836695,-19.746313,0,0
-10.501227,-11.354867,-19.979933,0,0
-8.548324,-12.407549,-19.586096,0,0
-9.129582,-15.455756,-19.01921,0,0
-12.153986,-19.93983,-17.586094,0,0
-14.353637,-23.183388,-14.920517,0,0
-17.53558,-25.121416,-13.115034,0,0
-19.935865,-18.651009,-18.629406,0,0
-10.772772,-10.096776,-17.7646,0,0
-13.813938,-5.4773207,-19.318895,0,0
-11.962781,-9.23932,-19.072268,0,0
-14.732401,-11.272822,-20.08322,0,0
-17.958014,-13.623468,-19.767378,0,0
-20.446459,-13.558504,-21.883104,0,0
-20.038588,-10.633562,-24.751476,0,0
-20.982544,-9.638126,-26.311903,0,0
-22.744482,-11.383994,-26.241293,0,0
-19.586412,-12.250772,-22.343733,0,0
-20.190237,-13.6368685,-21.474823,0,0
-21.881218,-15.6625185,-22.040678,0,0
-25.107069,-17.562702,-22.241854,0,0
-27.737925,-16.055368,-24.649128,0,0
-24.973886,-13.142157,-25.893454,0,0
-24.213923,-11.853268,-26.51556,0,0
-21.654919,-12.858398,-24.27132,0,0
-19.097603,-12.751188,-21.28522,0,0
-17.666668,-13.769438,-19.520744,0,0
-17.968555,-13.657985,-19.708239,0,0
-21.196545,-14.712692,-21.930355,0,0
-24.199211,-16.518156,-22.872053,0,0
-32.369434,-19.072876,-21.125944,0,0
-28.901087,-22.977264,-19.72187,0,0
-24.42143,-20.76976,-18.58077,0,0
-40.572525,6.036223,-5.935732,0,0
-11.99584,-20.747868,-16.963636,0,0
-11.352556,-20.670053,-16.85653,0,0
-12.799923,-19.047749,-15.274894,0,0
-15.268097,-18.73834,-16.637402,0,0
-12.631415,-19.900133,-17.630184,0,0
-12.162546,-17.989899,-18.361723,0,0
-12.086315,-17.21623,-18.532003,0,0
-12.428197,-17.110281,-18.537464,0,0
-15.202809,-18.903673,-16.577576,0,0
-18.570126,-20.535948,-15.571954,0,0
-16.894926,-24.761911,-13.311368,0,0
-16.971004,-26.580923,-11.414384,0,0
-18.127424,-25.409485,-13.038604,0,0
-14.197985,-18.724411,-17.924585,0,0
-10.664667,-16.94535,-18.652145,0,0
-11.518627,-16.192293,-18.692146,0,0
-12.39257,-16.547932,-18.625967,0,0
-15.572547,-15.427445,-18.72848,0,0
-19.760155,-17.642204,-18.99987,0,0
-22.940926,-22.331072,-17.266937,0,0
-24.370611,-20.559433,-12.434313,0,0
-17.92403,-16.248232,-9.855667,0,0
-18.419647,-15.302712,-7.8871937,0,0
-20.716108,-12.637297,-10.8022995,0,0
-21.654886,-12.858432,-24.271431,0,0
-27.73782,-16.05519,-24.649197,0,0
-44.3191,5.887249,-6.020005,0,0
-49.24393,-3.4090843,-2.6333852,0,0
23.54677,-7.904985,35.032185,0,0
-39.728706,-13.425989,-20.297783,0,0
-36.21673,-11.041941,-23.567633,0,0
-44.688976,-16.87138,-15.787952,0,0
23.546724,-7.9043345,35.032253,0,0
-25.505188,4.717639,23.762781,0,0
35.59162,7.242172,-15.148636,0,0
-42.908504,-7.65965,3.2774932,0,0
-24.164679,-17.934801,-21.374386,0,0
-21.88122,-15.6625185,-22.04068,0,0
-22.024431,-17.297403,-20.689528,0,0
-24.164684,-17.934734,-21.374268,0,0
-27.737669,-16.055626,-24.64919,0,0
-25.194061,-12.826737,-26.176535,0,0
-28.110426,-11.986726,-27.050558,0,0
-38.629143,-14.556393,-20.727613,0,0
-49.243916,-3.4090111,-2.6333845,0,0
-38.20413,-25.96143,-12.922926,0,0
-33.753407,-27.856499,-14.865247,0,0
-36.194824,-27.20963,-14.042531,0,0
-30.032917,-12.120759,-17.453583,0,0
-29.18085,-14.40673,-24.163542,0,0
-35.03851,-17.773521,-21.288704,0,0
-38.204277,-25.961435,-12.922951,0,0
-38.181904,-11.838087,-1.3178242,0,0
-42.80836,-7.552794,4.1090727,0,0
-39.198338,5.5589423,15.022023,0,0
-29.450214,-18.554478,-9.890553,0,0
-22.875624,-18.716787,-7.9864407,0,0
-25.754848,-20.913197,-11.732025,0,0
-23.089502,-25.66446,-15.271399,0,0
-20.024221,-31.873688,-11.589617,0,0
-42.45076,4.627539,-3.3899271,0,0
-32.903553,-24.049849,10.73979,0,0
-31.984251,-23.602531,14.236046,0,0
-29.410765,-22.614923,17.593016,0,0
-26.189144,-24.55607,15.7735815,0,0
-26.189167,-24.556072,15.773584,0,0
-15.272572,-30.172075,-5.1623,0,0
-17.964111,-33.73864,-10.311354,0,0
-24.112537,-31.280617,-11.07072,0,0
-29.345451,-9.773591,-16.367128,0,0
-30.032917,-12.120759,-17.453583,0,0
-38.48179,-16.535421,-11.029852,0,0
-38.181927,-11.838078,-1.3176593,0,0
-25.504276,5.0550613,23.951426,0,0
-33.48224,-6.3761945,-7.6285605,0,0
-33.77192,-5.1430845,-6.657574,0,0
29.157867,20.20505,-21.633823,0,0
27.624123,-21.19846,23.014277,0,0
-11.849749,8.065907,34.807484,0,0
28.78224,24.660723,-4.0147743,0,0
-25.183826,-15.713054,25.234253,0,0
-23.938519,-21.342781,21.999882,0,0
-25.781488,-22.61979,20.481878,0,0
-24.03005,-21.420107,21.970037,0,0
-28.319035,-24.870531,22.3821,0,0
-32.42529,-3.1693103,-6.7761464,0,0
-30.303,-7.1480613,-10.111649,0,0
-29.729118,-8.84456,-14.026868,0,0
-30.431437,-8.984522,-14.860248,0,0
-33.083813,-10.090935,-13.792732,0,0
-35.986626,-32.610764,-8.328806,0,0
-27.701319,-24.514862,-16.19217,0,0
-25.52794,-24.56131,-16.262962,0,0
-24.42317,-29.63892,-13.562829,0,0
-27.70136,-24.514927,-16.192156,0,0
-30.418642,-23.033152,-20.372375,0,0
-33.312225,-21.292826,-14.831686,0,0
-34.702843,-32.640022,-9.414867,0,0
-40.073048,-14.418258,-8.95119,0,0
-41.760483,-12.159233,-8.138311,0,0
-34.56909,-8.96271,-16.180964,0,0
-34.67137,-8.730536,-11.912357,0,0
-33.1075,-9.473853,-11.559857,0,0
-28.735853,-8.989745,-13.989727,0,0
-24.324501,-31.070538,-11.121672,0,0
-23.209557,-32.700817,-13.299869,0,0
-27.448025,-27.387657,-15.579742,0,0
-28.688969,-24.341167,-16.016043,0,0
-29.617205,-31.950748,-12.135733,0,0
-32.199875,-10.160452,-11.966018,0,0
29.821932,8.234368,-24.64324,0,0
35.746273,7.112403,-15.369249,0,0
-25.505188,4.717639,23.762781,0,0
-34.678467,-2.7440968,4.0449767,0,0
-32.51089,-1.6420143,19.881857,0,0
29.177855,20.028326,-21.42583,0,0
-34.19762,-4.1647034,-6.220968,0,0
35.59162,7.242172,-15.148636,0,0
-4.1415973,42.198853,-17.750122,0,0
-44.688976,-16.871534,-15.787952,0,0
-43.659393,-10.980675,-9.846157,0,0
-49.24397,-3.4090848,-2.6333852,0,0
24.320023,-7.750608,35.18797,0,0
-32.94734,30.91906,18.892075,0,0
-34.794216,-8.9562645,-15.11151,0,0
-43.748856,-21.855894,-9.606111,0,0
-42.688667,-7.337101,3.2022645,0,0
22.085108,1.041704,32.18649,0,0
-18.52384,-27.986263,25.804188,0,0
-18.52384,-27.986263,25.804188,0,0
-42.12732,0.31042913,7.988459,0,0
-42.908348,-10.559032,-18.928215,0,0
-39.52729,-7.689544,-23.988571,0,0
-37.045322,-10.102362,-23.746643,0,0
-39.525684,-7.688052,-23.991077,0,0
-44.76733,-3.6993983,-10.678029,0,0
-13.873019,-11.895785,38.903576,0,0
43.674194,11.091717,14.961071,0,0
-35.98655,-32.610752,-8.3288355,0,0
-36.430992,-16.714169,-21.218513,0,0
-32.70116,-14.966971,-22.573359,0,0
-31.436947,-11.893886,-27.123503,0,0
-34.66319,-12.9599,-23.174088,0,0
-41.183304,-23.741116,-11.125121,0,0
-34.794216,-8.9562645,-15.11151,0,0
-45.034077,-12.554545,-2.118962,0,0
-15.978617,-18.75436,-35.834934,0,0
-13.513416,-11.994413,38.703953,0,0
-13.873019,-11.895785,38.903576,0,0
22.213545,0.25808793,32.355312,0,0
-45.665485,5.3647423,-3.2752545,0,0
24.320023,-7.750608,35.18797,0,0
-42.12732,0.31042913,7.988459,0,0
-42.908363,-10.559032,-18.92822,0,0
-39.52729,-7.689544,-23.988571,0,0
-37.045242,-10.102264,-23.746782,0,0
-38.629448,-14.556492,-20.727535,0,0
-40.032135,-20.077621,-19.09036,0,0
-33.67983,-23.304996,-20.92957,0,0
-42.73663,5.6412497,-6.140944,0,0
-28.582159,-27.567795,-15.535361,0,0
-23.102655,-37.197357,-9.214528,0,0
-17.770275,-41.425434,-12.013575,0,0
32.663845,7.7401824,-26.82322,0,0
25.890657,6.6680694,-27.498455,0,0
25.890656,6.6680694,-27.498377,0,0
25.890657,6.6680694,-27.498455,0,0
-42.270023,2.27148,-22.245235,0,0
35.325695,7.120958,-25.904188,0,0
-29.66158,-11.815644,-15.812408,0,0
-28.00446,-8.342986,-18.82948,0,0
-28.79149,-7.8310614,-18.685602,0,0
-39.62561,-24.941538,-12.082136,0,0
-18.52384,-27.986263,25.804188,0,0
29.15577,20.166641,-21.539164,0,0
-28.931202,18.055769,23.440147,0,0
-28.931206,18.055769,23.440147,0,0
-32.51089,-1.6420143,19.881857,0,0
35.746273,7.112403,-15.369249,0,0
22.092304,1.0469242,32.161022,0,0
-18.916683,-28.231165,26.243893,0,0
-34.94424,-8.58484,-16.06839,0,0
-30.225061,-6.74034,-19.013378,0,0
-31.969032,-6.530628,-19.564764,0,0
-45.55984,6.221268,-5.9344907,0,0
24.320023,-7.750608,35.18797,0,0
-43.748867,-21.855885,-9.6061125,0,0
-38.629322,-14.556405,-20.72731,0,0
-34.82815,-7.730924,-23.81957,0,0
-29.817078,-14.658575,-26.376326,0,0
-31.883997,-15.714801,-22.322962,0,0
-38.204258,-25.961355,-12.922916,0,0
-33.961765,-24.423536,-2.5620701,0,0
29.82194,8.234516,-24.643213,0,0
-28.669924,-7.8903346,-18.920128,0,0
-25.532948,-6.897213,-19.136951,0,0
-28.258492,-7.2375417,-18.876448,0,0
-31.231222,-8.318458,-16.9387,0,0
-45.0341,-12.554533,-2.1189613,0,0
-18.916683,-28.231165,26.243893,0,0
22.092436,1.0472788,32.15969,0,0
-31.073961,-8.522365,-16.146606,0,0
-28.791616,-7.8312163,-18.685196,0,0
-30.18223,-8.727471,-18.449244,0,0
-31.482948,-10.7577915,-19.019419,0,0
-35.970417,-23.162361,-20.954765,0,0
-35.986538,-32.610706,-8.328839,0,0
36.51547,3.0504153,-25.567226,0,0
29.821938,8.234518,-24.643215,0,0
-42.761906,0.67296106,-18.016407,0,0
-36.051643,-13.895299,24.851051,0,0
27.938797,-21.741179,23.259665,0,0
-18.68417,-36.298832,14.880558,0,0
-32.51089,-1.6420143,19.881857,0,0
-33.771915,-5.143071,-6.65758,0,0
-18.48352,-36.983612,14.950241,0,0
-42.713505,5.456642,2.147368,0,0
-18.904621,-37.04353,14.611935,0,0
-32.603714,-7.110953,23.703936,0,0
-42.635033,-7.4643755,6.0770097,0,0
35.466515,-1.8896195,-31.67982,0,0
43.674183,11.091714,14.961063,0,0
-43.748856,-21.855894,-9.606111,0,0
-31.853634,-9.5472355,-26.927021,0,0
-32.760166,-7.158711,-26.419054,0,0
-41.234486,-9.287047,-21.28279,0,0
-44.688915,-16.871487,-15.788015,0,0
-34.56907,-8.9627,-16.180437,0,0
-30.696619,-8.849621,-16.914011,0,0
-30.540062,-11.550247,-15.699773,0,0
12.501459,6.9844565,-21.42757,1,1
20.42852,-17.484558,-20.716263,1,1
20.396,-17.43347,-20.635813,1,1
20.3917,-17.438038,-20.599329,1,1
20.411472,-17.479555,-20.607235,1,1
20.431087,-17.507982,-20.618198,1,1
37.86759,-4.7900953,-1.3892953,1,1
37.667404,-4.7411532,-1.331852,1,1
37.520107,-4.687433,-1.2710203,1,1
37.50964,-4.686093,-1.2589232,1,1
37.535347,-4.6923113,-1.2542409,1,1
37.557312,-4.678202,-1.2317978,1,1
37.550205,-4.681578,-1.2392069,1,1
37.540462,-4.683026,-1.2460177,1,1
37.507683,-4.6704397,-1.2319686,1,1
37.53715,-4.6588416,-1.1988143,1,1
37.56303,-4.6678247,-1.2183056,1,1
37.554485,-4.673951,-1.2292379,1,1
37.52034,-4.673937,-1.2385876,1,1
37.469437,-4.6887674,-1.2569311,1,1
37.450558,-4.6998796,-1.2674804,1,1
37.572132,-4.705325,-1.2390269,1,1
22.346087,-20.08102,-17.612873,1,1
22.3095,-20.064646,-17.72922,1,1
22.271757,-19.974932,-17.798073,1,1
22.209883,-19.808296,-17.7388,1,1
22.153141,-19.621859,-17.610273,1,1
22.132788,-19.546103,-17.543013,1,1
22.111917,-19.525396,-17.449146,1,1
22.091562,-19.472794,-17.44059,1,1
22.107574,-19.452686,-17.496872,1,1
22.212362,-19.828026,-17.495487,1,1
22.272375,-19.996668,-17.575516,1,1
22.32089,-20.10092,-17.729784,1,1
27.23022,-25.31713,10.780449,1,1
27.178709,-25.292305,10.863212,1,1
27.221992,-25.197979,11.030845,1,1
27.937477,-24.199244,12.522483,1,1
28.085384,-24.140312,12.59034,1,1
28.06057,-24.156626,12.573822,1,1
27.985794,-24.185667,12.547097,1,1
27.924421,-24.216654,12.514715,1,1
27.867952,-24.250067,12.484745,1,1
27.994028,-24.188082,12.550105,1,1
28.34484,-24.025574,12.710961,1,1
28.504519,-23.947618,12.783912,1,1
28.561043,-23.916906,12.809269,1,1
28.519289,-23.93128,12.793432,1,1
28.33682,-24.010967,12.720027,1,1
27.955667,-24.167011,12.567772,1,1
27.442242,-24.334648,12.407196,1,1
27.196602,-24.427223,12.329923,1,1
27.160753,-24.411516,12.350644,1,1
27.149485,-24.400597,12.359248,1,1
27.155577,-24.397524,12.359001,1,1
27.15535,-24.407076,12.347366,1,1
26.964773,-24.479383,12.294315,1,1
26.786188,-24.570091,12.239428,1,1
26.738087,-24.59589,12.228725,1,1
26.657167,-24.68127,12.15933,1,1
26.293278,-24.952885,11.9328575,1,1
25.983582,-25.095476,11.933046,1,1
25.538824,-25.091043,12.4402275,1,1
12.491557,-34.768784,-17.590694,1,1
12.267722,-34.86593,-17.765652,1,1
12.315831,-34.693848,-17.698849,1,1
12.5309925,-34.439144,-17.502718,1,1
12.678704,-34.1183,-17.308378,1,1
12.835556,-33.849995,-17.098518,1,1
12.634685,-33.990273,-17.341679,1,1
11.344666,-34.568085,-18.65894,1,1
11.197327,-34.811092,-18.849142,1,1
11.111549,-34.890488,-18.909405,1,1
11.157513,-34.863285,-18.871376,1,1
11.231455,-34.794098,-18.786842,1,1
11.300311,-34.68928,-18.714684,1,1
11.333818,-34.763317,-18.724201,1,1
11.004584,-34.951294,-19.01906,1,1
5.122264,-29.125364,-24.786612,1,1
5.118384,-29.130169,-24.852646,1,1
5.0865164,-29.173733,-24.823696,1,1
5.0566945,-29.220583,-24.749485,1,1
5.0288095,-29.26332,-24.705828,1,1
5.0026913,-29.303652,-24.74987,1,1
4.993597,-29.32031,-24.785107,1,1
4.9804964,-29.339209,-24.777613,1,1
4.949582,-29.38781,-24.845957,1,1
4.927528,-29.412548,-24.800955,1,1
4.8566194,-29.525871,-24.837511,1,1
4.788658,-29.728603,-25.311752,1,1
4.7721686,-29.77478,-25.436813,1,1
4.7320237,-29.822027,-25.450132,1,1
4.7543693,-29.783087,-25.395464,1,1
4.7811923,-29.745415,-25.411367,1,1
4.793537,-29.728357,-25.451694,1,1
4.795378,-29.70752,-25.30986,1,1
4.723733,-29.756668,-24.996813,1,1
4.5631695,-29.941628,-24.749989,1,1
4.4311075,-30.083885,-24.669655,1,1
4.6224923,-29.98005,-25.593782,1,1
4.263696,-29.81188,-28.34433,1,1
4.270438,-29.80582,-28.401703,1,1
4.251424,-29.813715,-28.434553,1,1
4.2362847,-29.83235,-28.397865,1,1
4.1750803,-29.876728,-28.292776,1,1
3.9174874,-29.791065,-28.392616,1,1
3.0595698,-29.570362,-29.23882,1,1
2.678967,-29.509092,-29.506783,1,1
2.6728246,-29.519814,-29.498344,1,1
2.5328455,-29.512346,-29.557436,1,1
2.0703373,-29.49606,-29.70495,1,1
1.6377953,-29.455341,-29.838524,1,1
1.2297409,-29.300718,-30.0957,1,1
0.69836885,-29.179617,-30.39818,1,1
-1.3039926,-28.913727,-31.297304,1,1
-1.5359323,-28.94403,-31.399763,1,1
-1.6131735,-28.88617,-31.259403,1,1
-1.7013469,-28.839087,-31.14263,1,1
-1.9357303,-28.767178,-31.062874,1,1
-2.037216,-28.762869,-31.253267,1,1
-2.074152,-28.747002,-31.245506,1,1
-2.1078095,-28.72293,-31.007383,1,1
-2.234577,-28.68356,-31.225908,1,1
-3.1520183,-28.421694,-32.351837,1,1
-3.235804,-28.420385,-32.5189,1,1
-3.2377298,-28.42998,-32.546043,1,1
-3.347299,-28.326075,-32.43659,1,1
-4.2259307,-27.557106,-31.8643,1,1
-4.50931,-27.315042,-31.697577,1,1
-4.5801435,-27.239058,-31.71914,1,1
-4.6213307,-27.189295,-31.762669,1,1
-4.704644,-27.090406,-31.815546,1,1
-4.9296813,-26.816368,-31.991632,1,1
-5.230887,-26.494705,-32.263557,1,1
-5.504707,-26.26666,-32.550545,1,1
-5.9164963,-26.141714,-33.089355,1,1
-6.2834725,-26.059433,-33.58323,1,1
-6.521739,-26.007843,-33.906548,1,1
-6.5751624,-26.017033,-33.9916,1,1
-6.5829844,-26.010796,-33.99963,1,1
-6.5880175,-26.046007,-34.02829,1,1
-6.5874386,-26.069212,-34.042274,1,1
-6.5825047,-26.06108,-34.029766,1,1
-6.5739517,-26.068743,-34.02207,1,1
-6.5620747,-26.051695,-33.993366,1,1
-6.5518928,-25.993631,-33.943188,1,1
-6.574682,-25.979212,-33.967945,1,1
-6.5809965,-25.9743,-33.97406,1,1
-6.589064,-25.963375,-33.97917,1,1
-6.5934744,-25.945911,-33.97449,1,1
-6.585266,-25.884844,-33.924557,1,1
-6.585386,-25.85703,-33.90787,1,1
-6.573348,-25.753305,-33.824726,1,1
-6.5479774,-25.582129,-33.67923,1,1
-6.541369,-25.444254,-33.582134,1,1
-6.554029,-25.582083,-33.687195,1,1
-6.5426664,-25.682383,-33.735844,1,1
-6.517877,-25.688326,-33.706055,1,1
-6.4891715,-25.593931,-33.610806,1,1
-6.4659843,-25.473167,-33.5047,1,1
-6.3951545,-25.29846,-33.30187,1,1
-6.3483953,-25.214933,-33.188248,1,1
-6.317936,-25.128523,-33.095814,1,1
-6.435805,-24.966942,-33.138706,1,1
-6.5899363,-24.722965,-33.163322,1,1
-6.731068,-24.336466,-33.072895,1,1
-6.753668,-24.226267,-33.025013,1,1
-6.7470555,-24.077307,-32.91266,1,1
-6.707694,-23.90789,-32.74537,1,1
-6.7139673,-23.815943,-32.68021,1,1
-6.7403626,-23.753025,-32.65353,1,1
-6.7998996,-23.791594,-32.75704,1,1
-6.8241744,-23.807133,-32.80071,1,1
-6.8220816,-23.78258,-32.775604,1,1
-6.816186,-23.840902,-32.818287,1,1
-6.800986,-23.855244,-32.810883,1,1
-6.786937,-23.882538,-32.812504,1,1
-6.744519,-23.82056,-32.708717,1,1
-6.6116066,-23.627846,-32.37605,1,1
-6.454459,-23.417456,-31.9979,1,1
-6.4892926,-23.276148,-31.855963,1,1
-6.576871,-23.257883,-31.915148,1,1
-6.677979,-23.3271,-32.104706,1,1
-6.70461,-23.273846,-32.06279,1,1
-6.737467,-23.17173,-31.957796,1,1
-6.765516,-23.001894,-31.69826,1,1
-6.880211,-22.663462,-31.171946,1,1
-7.0121565,-22.394058,-30.783121,1,1
-7.0848775,-22.285147,-30.62726,1,1
-7.1215196,-22.238018,-30.554012,1,1
-7.131117,-22.234299,-30.551777,1,1
-7.1572194,-22.20963,-30.505064,1,1
-7.177795,-22.19112,-30.466272,1,1
-7.201271,-22.172123,-30.416414,1,1
-7.161498,-22.20769,-30.50361,1,1
-7.1514072,-22.215899,-30.526337,1,1
-7.187043,-22.175358,-30.44591,1,1
-7.2233753,-22.145992,-30.365685,1,1
-7.250264,-22.12889,-30.308615,1,1
-7.2699647,-22.117365,-30.26943,1,1
-7.3061037,-22.099527,-30.189146,1,1
-7.310775,-22.099415,-30.175983,1,1
-7.329121,-22.086452,-30.132097,1,1
-7.375665,-22.066832,-30.03128,1,1
-7.4337525,-22.051006,-29.907423,1,1
-7.4630027,-22.04393,-29.847076,1,1
-7.4582863,-22.04566,-29.860954,1,1
-7.532911,-22.028154,-29.696869,1,1
-7.666367,-22.005642,-29.393862,1,1
-7.713326,-21.996454,-29.28752,1,1
-7.7564526,-21.99253,-29.186516,1,1
-7.8024163,-21.991339,-29.073936,1,1
-7.808188,-21.992384,-29.059072,1,1
-7.8265758,-21.996553,-29.007555,1,1
-7.8781557,-22.010277,-28.867552,1,1
-7.902286,-22.012987,-28.811804,1,1
-7.9119315,-22.014423,-28.787924,1,1
-7.881849,-22.015196,-28.85401,1,1
-7.864193,-22.01875,-28.892319,1,1
-7.903863,-22.029427,-28.782753,1,1
-7.953365,-22.050499,-28.635881,1,1
-8.016209,-22.085371,-28.444578,1,1
-8.041508,-22.102383,-28.361275,1,1
-8.08222,-22.135923,-28.227497,1,1
-8.13867,-22.192928,-28.051888,1,1
-8.188776,-22.254694,-27.897465,1,1
-8.202795,-22.26462,-27.870176,1,1
-8.113735,-22.168375,-28.11053,1,1
-8.087658,-22.148373,-28.157162,1,1
-8.065006,-22.13164,-28.202644,1,1
-8.070905,-22.138487,-28.175945,1,1
-8.112525,-22.178991,-28.05565,1,1
-8.1840315,-22.277908,-27.839037,1,1
-8.258632,-22.44666,-27.575666,1,1
-8.53689,-26.778078,-24.182373,1,1
-8.555307,-26.831758,-24.15983,1,1
-8.534653,-26.813257,-24.16079,1,1
-8.569247,-26.861155,-24.15017,1,1
-8.650077,-27.031013,-24.106232,1,1
-8.166408,-32.28822,-21.955383,1,1
-8.732743,-32.29399,-21.855532,1,1
-9.69697,-32.270496,-21.686863,1,1
-10.105604,-32.229385,-21.618006,1,1
-10.227566,-32.23282,-21.666893,1,1
-10.029939,-32.271313,-21.692984,1,1
-9.792904,-32.3111,-21.70247,1,1
-9.7344055,-32.30482,-21.703533,1,1
-9.91042,-32.28265,-21.682983,1,1
-10.255481,-32.211494,-21.665485,1,1
-10.508521,-32.19126,-21.692825,1,1
-10.54687,-32.17279,-21.728287,1,1
-10.515509,-32.195415,-21.715584,1,1
-10.445639,-32.221977,-21.701063,1,1
-10.489515,-32.191875,-21.715464,1,1
-10.575969,-32.148632,-21.74185,1,1
-10.60204,-32.13893,-21.748133,1,1
-10.585715,-32.154305,-21.737734,1,1
-10.620155,-32.134266,-21.749535,1,1
-10.601577,-32.183617,-21.730711,1,1
-10.513164,-32.24307,-21.703169,1,1
-10.503646,-32.285854,-21.680725,1,1
-10.578377,-32.292027,-21.673016,1,1
-10.692602,-32.290966,-21.669209,1,1
0.14848593,-30.127789,-8.303342,1,1
0.18012199,-30.05283,-8.283521,1,1
0.18376641,-29.968681,-8.247179,1,1
0.26671106,-30.037937,-8.334885,1,1
0.6239316,-30.481163,-8.748678,1,1
0.7910003,-30.652817,-8.941666,1,1
0.74187285,-30.552326,-9.018994,1,1
-2.2781785,-26.71948,-11.467614,1,1
-2.1740441,-26.470028,-11.56121,1,1
-1.8790789,-26.137064,-11.68536,1,1
-1.2974479,-25.936157,-12.3664875,1,1
-0.7140707,-25.646677,-13.068322,1,1
-0.23171505,-24.881624,-13.104092,1,1
0.13110088,-24.365992,-13.171499,1,1
-1.849474,-0.7520322,-32.05369,1,1
-1.6621873,-1.0643011,-31.42154,1,1
0.275079,-23.768301,-10.708528,1,1
0.18373029,-23.95073,-10.725932,1,1
0.23174447,-23.901993,-10.706078,1,1
0.41966975,-23.66875,-10.642084,1,1
0.53431565,-23.490644,-10.610808,1,1
0.57915556,-23.410992,-10.599355,1,1
0.6052431,-23.289711,-10.596986,1,1
-8.693627,6.20554,-22.090569,1,1
-8.778976,6.1719565,-22.05855,1,1
-8.881275,6.156366,-21.909805,1,1
-1.5621318,-1.3382312,-31.057669,1,1
-0.06632117,-24.401634,-13.191317,1,1
-0.733436,-25.942486,-13.5512085,1,1
-0.8670706,-26.252937,-13.740836,1,1
-0.8663091,-26.142124,-13.756719,1,1
-0.7521195,-25.73033,-13.737166,1,1
-0.24268146,-24.73516,-13.6848345,1,1
-2.311725,0.20366585,-32.844894,1,1
-2.7629278,-0.096247904,-32.51422,1,1
-3.011368,0.037568126,-32.225616,1,1
-2.9934952,0.061969448,-32.125923,1,1
-2.7280083,-0.14486197,-32.42531,1,1
-2.7261307,-0.109527454,-32.547363,1,1
-2.7247095,-0.24331212,-32.56885,1,1
-2.8677053,-0.28501362,-32.542953,1,1
-3.0350006,-0.33682352,-32.501347,1,1
-3.0230987,-0.3446821,-32.441303,1,1
-3.0446033,-0.42593196,-32.278633,1,1
-3.1655781,-0.64884704,-32.011242,1,1
-3.1899755,-1.1329195,-31.517233,1,1
-10.122113,5.6441927,-23.91709,1,1
-3.2556255,0.50919676,-31.867605,1,1
-2.9567769,0.86876625,-31.973598,1,1
-3.0726874,0.8845729,-32.018448,1,1
-3.367809,0.77315277,-31.977499,1,1
-10.847109,4.880173,-26.00999,1,1
-10.928223,5.0083404,-25.802769,1,1
-10.298349,5.6859474,-23.820068,1,1
-9.853953,5.638244,-22.046152,1,1
-9.823819,5.718156,-21.447638,1,1
-9.826087,5.751837,-21.264326,1,1
-9.960654,5.667904,-21.180864,1,1
-10.806059,4.8653283,-21.998932,1,1
-9.265065,4.2579737,-23.687319,1,1
-9.071953,4.2227135,-23.780443,1,1
-9.060367,4.2246633,-23.79357,1,1
-9.109213,4.2390757,-23.76525,1,1
-9.217416,4.2894044,-23.68382,1,1
-9.470262,4.4661994,-23.448908,1,1
-10.1429615,5.2819147,-21.948614,1,1
-10.017445,5.5733967,-21.352896,1,1
-9.871925,5.746338,-21.149687,1,1
-9.824739,5.8463435,-20.974281,1,1
-9.904004,5.855475,-20.723904,1,1
-10.117283,5.9085817,-19.984312,1,1
6.3884706,-12.071052,1.1665245,1,1
6.4443974,-12.095829,1.1711382,1,1
6.486717,-12.102708,1.1541312,1,1
6.4540286,-12.083593,1.133237,1,1
-12.593111,4.7495766,-16.644312,1,1
-11.044876,5.987273,-17.35773,1,1
-10.662943,6.3898635,-17.552805,1,1
-10.849513,6.25431,-17.398373,1,1
-8.795571,7.4141216,-16.10885,1,1
-7.063548,9.000857,-15.680161,1,1
12.125423,17.561726,-10.762306,1,1
16.322191,9.107807,-14.261496,1,1
15.48633,7.2678757,-14.879145,1,1
12.894037,4.740322,-13.579794,1,1
11.000309,4.0896764,-13.545447,1,1
7.992029,-14.450408,-2.4965837,1,1
22.180119,-13.863866,-7.1992188,1,1
22.492294,-14.369649,-6.785201,1,1
24.139198,-15.695708,-4.937249,1,1
24.19217,-15.75069,-4.887769,1,1
24.063143,-15.697935,-4.9981575,1,1
23.733982,-15.58004,-5.286486,1,1
22.418335,-15.27157,-6.3196554,1,1
18.825275,-11.718692,-11.704035,1,1
18.612194,-11.142069,-12.02164,1,1
18.56783,-10.752134,-12.1284275,1,1
18.38902,-10.409262,-12.350022,1,1
8.144893,-5.226273,-19.159922,1,1
8.763354,-5.6260014,-18.313982,1,1
6.864366,-5.468842,-17.73959,1,1
9.723643,-3.4284124,-17.576563,1,1
15.467424,-1.4848284,-17.79602,1,1
22.957554,-2.1468031,-13.902654,1,1
24.972546,0.05181393,-13.507569,1,1
24.893406,0.002889074,-13.021552,1,1
23.791227,-2.0224435,-11.538983,1,1
23.20373,-2.9911103,-11.992764,1,1
23.250721,-3.0324788,-12.019186,1,1
23.316694,-3.0417678,-12.061603,1,1
-10.786992,-13.643857,-19.086,0,0
-10.049537,-11.112218,-20.047739,0,0
-8.661711,-10.966866,-18.91599,0,0
-6.8840623,-7.7378235,-13.992922,0,0
-1.5029974,-2.5251074,-9.646256,0,0
2.6569958,0.5145791,-12.339619,0,0
-1.9175211,2.251012,-8.499024,0,0
-2.0690134,2.289434,-8.731437,0,0
-1.9086472,-1.9758365,-11.348801,0,0
-2.8749397,-3.8847213,-12.464373,0,0
-2.9950137,-6.480809,-14.337315,0,0
-4.9199753,-10.0011,-14.603485,0,0
-6.638456,-16.317778,-19.335293,0,0
-12.153968,-19.939856,-17.586128,0,0
-16.886229,-21.281374,-16.970304,0,0
-21.901585,-10.116506,-18.753496,0,0
-15.677028,-6.0761104,-19.472757,0,0
-14.775458,-5.8396096,-19.68352,0,0
-16.319735,-8.313789,-20.686134,0,0
-16.32703,-9.276776,-22.771631,0,0
-15.083762,-10.130909,-20.933521,0,0
-16.339071,-11.221485,-20.614773,0,0
-20.716463,-14.771437,-21.354923,0,0
-21.881285,-15.662565,-22.040688,0,0
-25.049284,-10.657472,-18.754366,0,0
-23.32616,-10.251751,-16.735617,0,0
-14.629883,-19.152197,-15.789275,0,0
-14.011545,-20.67719,-17.140316,0,0
-15.370377,-23.015146,-15.348398,0,0
-17.432646,-26.018167,-12.183665,0,0
-21.071936,-24.796654,-14.795856,0,0
-23.442038,-16.070787,-12.357599,0,0
-20.07979,-10.399758,-11.571888,0,0
-16.428179,-4.862639,-24.242168,0,0
-16.454033,-4.7915053,-24.507763,0,0
-17.767282,-7.011554,-25.113913,0,0
-16.3053,-9.401996,-22.791513,0,0
-14.197835,-9.200668,-19.596413,0,0
-9.440826,-4.250159,-14.699879,0,0
-9.1296835,-4.0360813,-16.09968,0,0
-10.334177,-5.5838943,-15.571312,0,0
-14.270201,-8.580327,-14.324255,0,0
-19.353088,-12.556128,-21.733652,0,0
-22.579845,-15.406482,-22.874807,0,0
-22.252718,-15.544017,-22.49367,0,0
-23.959608,-19.456394,-19.453163,0,0
-27.361176,-18.294027,-20.464228,0,0
-30.41837,-23.033007,-20.371595,0,0
-25.107178,-17.56308,-22.24187,0,0
-23.194174,-15.991676,-12.479825,0,0
-15.960333,-11.376856,-10.635372,0,0
-13.301177,-9.851977,-11.12025,0,0
-13.353781,-9.4876175,-10.2230425,0,0
-15.529056,-10.87657,-9.774232,0,0
-15.536537,-17.036192,-13.303887,0,0
-19.518894,-22.344923,-16.582727,0,0
-18.739035,-29.125101,-11.378818,0,0
-16.578192,-34.402428,-8.388923,0,0
-19.95268,-23.660555,0.5982707,0,0
-19.841206,-17.905909,-5.238077,0,0
-25.754826,-20.913054,-11.732085,0,0
-22.062153,-24.728304,-16.631767,0,0
-20.935482,-27.396149,-13.329137,0,0
-22.797098,-26.067907,-16.608347,0,0
-27.09055,-20.365297,-19.305908,0,0
-42.715157,6.639414,-7.6783733,0,0
-19.158348,-11.407407,-22.67607,0,0
-20.881544,-10.945835,-20.687351,0,0
-18.823017,-13.835205,-18.568968,0,0
-39.852726,7.533934,-8.092189,0,0
-12.488619,-10.395501,-16.256662,0,0
-12.593565,-8.174239,-12.053542,0,0
-14.647421,-7.5864983,-12.845767,0,0
-16.997885,-9.1390085,-8.074098,0,0
-16.925695,-5.2150884,-14.848767,0,0
-15.482911,-4.7692537,-16.433239,0,0
-7.833689,-5.0154996,-16.319519,0,0
-7.3651605,-5.096258,-20.090864,0,0
-7.981963,-4.966518,-20.187244,0,0
-8.583123,-5.0418177,-20.247696,0,0
-9.602179,-5.7685986,-20.404076,0,0
-6.606677,-6.7170434,-19.877136,0,0
-6.552401,-6.931982,-19.845154,0,0
-7.143353,-7.2934127,-19.786297,0,0
-8.654916,-4.621633,-17.331211,0,0
-9.60611,-4.553394,-15.135185,0,0
-40.378426,9.124574,-9.936894,0,0
-10.973506,-4.6895347,-22.413073,0,0
-10.527938,-4.5875463,-22.155655,0,0
-10.570167,-5.125663,-21.737791,0,0
-11.689013,-6.31376,-21.685923,0,0
-12.479938,-8.46398,-20.72523,0,0
-14.401038,-10.604475,-20.330767,0,0
-16.339062,-11.221541,-20.614698,0,0
-16.415564,-10.261512,-21.386639,0,0
-16.326996,-9.27678,-22.77161,0,0
-15.752519,-7.974608,-24.291895,0,0
-15.19278,-6.992803,-24.996468,0,0
-16.122269,-8.49984,-23.76408,0,0
-19.475147,-10.947748,-23.542934,0,0
-20.989466,-11.110399,-25.31093,0,0
-23.967443,-12.273865,-26.15333,0,0
-29.817125,-14.659098,-26.375843,0,0
-41.060966,-18.942772,-18.302357,0,0
-13.330494,-11.802807,39.412086,0,0
-32.51089,-1.6420143,19.881857,0,0
-31.823097,-7.93003,24.313816,0,0
-31.435272,-21.87534,16.054352,0,0
-28.202644,-22.826927,20.4459,0,0
-30.05384,-23.125708,15.627913,0,0
-29.379362,-23.597649,15.416847,0,0
-31.91765,-22.630924,12.242465,0,0
-28.777746,-11.92748,-15.644267,0,0
-16.714369,-15.599031,-10.335743,0,0
-13.193042,-11.959404,-7.829295,0,0
-13.138935,-14.157794,-8.227258,0,0
-16.043627,-19.049616,-9.094999,0,0
-18.739054,-29.125237,-11.378518,0,0
-25.077276,-32.087395,-15.136833,0,0
-27.448025,-27.387657,-15.579742,0,0
-27.090551,-20.365301,-19.305908,0,0
-27.829344,-22.826626,-19.20726,0,0
-31.373665,-23.036901,-15.356559,0,0
-35.97043,-23.162067,-20.95477,0,0
-38.62946,-14.556482,-20.726784,0,0
-35.970547,-23.162346,-20.954807,0,0
-29.817,-14.658559,-26.376186,0,0
-27.73782,-16.05519,-24.649197,0,0
-29.901054,-17.587656,-23.998457,0,0
-43.901993,5.997573,-6.4628606,0,0
-29.160921,-14.468304,-24.241306,0,0
-19.91024,-13.768449,-21.122923,0,0
-40.88082,7.0042896,-7.797901,0,0
-40.993965,6.8977485,-7.684977,0,0
-21.946928,-18.250217,-19.825687,0,0
-27.090546,-20.3653,-19.30591,0,0
-30.037708,-23.833607,-15.679463,0,0
-43.58268,-23.349457,-1.4174371,0,0
-37.469185,-10.335816,-3.8897402,0,0
35.59162,7.242172,-15.148636,0,0
29.214264,19.900404,-21.428265,0,0
27.619823,-21.20387,23.01757,0,0
15.859435,34.44971,-23.142555,0,0
-42.149586,4.655534,-0.7595562,0,0
35.32593,7.1217103,-25.904121,0,0
-44.1163,-18.711258,5.231946,0,0
-43.674725,-20.261448,-1.5737721,0,0
-28.484852,-37.50789,-11.211564,0,0
-21.803566,-24.086456,-15.622189,0,0
-17.187496,-24.172113,-14.40563,0,0
-17.05119,-26.397055,-12.837296,0,0
-16.931337,-27.977262,-10.315843,0,0
-17.661158,-30.710178,-10.236681,0,0
-20.537348,-32.8954,-11.493541,0,0
-25.462538,-22.618938,-18.15787,0,0
-21.946928,-18.25018,-19.825722,0,0
-24.421312,-20.770096,-18.580896,0,0
-25.530642,-30.231276,-13.323874,0,0
-21.084959,-33.937267,-11.198144,0,0
-17.948315,-37.14007,-10.52562,0,0
-16.758284,-41.2877,-5.035409,0,0
38.407394,2.7545633,-22.613838,0,0
-31.387346,-32.46078,-11.396552,0,0
-27.448034,-27.387672,-15.579723,0,0
-23.983982,-33.685974,-13.370632,0,0
-28.484884,-37.507824,-11.211538,0,0
-44.11634,-18.711317,5.232048,0,0
-31.648981,-34.53321,-7.427574,0,0
-43.674717,-20.261442,-1.573772,0,0
-24.233835,-38.200985,-7.898147,0,0
-30.163282,-21.33654,-8.917478,0,0
-33.67984,-23.304916,-20.929342,0,0
-35.03853,-17.773705,-21.288162,0,0
-41.592068,-12.640634,-8.695977,0,0
-42.12732,0.31042913,7.988459,0,0
23.820961,-7.533696,35.18644,0,0
38.43256,1.2289717,-24.852266,0,0
-16.531414,-37.96391,-7.16302,0,0
-21.085094,-33.93715,-11.198136,0,0
-18.00186,-34.711945,-10.290212,0,0
-30.946548,-24.299595,8.197563,0,0
-34.481434,-23.490921,10.3696165,0,0
-32.953007,-19.83491,16.508703,0,0
-27.111639,-23.01898,19.112354,0,0
-26.189228,-24.556036,15.773564,0,0
-15.941963,-31.002386,-7.6297483,0,0
-22.5426,-31.913721,-13.200769,0,0
-28.266191,-31.434668,-12.603698,0,0
-30.742964,-38.473896,-8.57106,0,0
36.029617,1.0794683,-27.730831,0,0
-17.948315,-37.14007,-10.52562,0,0
-20.53706,-32.895317,-11.493482,0,0
-18.00556,-35.493065,-10.314379,0,0
-17.948324,-37.13916,-10.525428,0,0
-16.686234,-39.634575,-6.1702385,0,0
-25.4144,-39.262234,-6.102625,0,0
-26.47702,-36.224464,-12.7525015,0,0
-24.643406,-22.500431,-17.836767,0,0
-23.682993,-20.92587,-18.293322,0,0
-23.73862,-22.439877,-17.483488,0,0
-41.19932,5.7918453,-5.9356995,0,0
-22.502237,-28.500086,-13.535348,0,0
-23.965216,-26.295006,-15.432122,0,0
-19.540804,-21.36247,-17.186598,0,0
-19.138113,-22.383352,-16.514338,0,0
-18.128256,-25.409472,-13.038645,0,0
-18.388403,-28.480547,-11.349521,0,0
-16.661303,-32.55699,-8.878296,0,0
-17.909393,-32.41697,-10.370651,0,0
-20.537237,-32.895275,-11.493427,0,0
-23.209461,-32.701008,-13.30009,0,0
-26.778784,-30.767586,-13.027857,0,0
-21.275782,-18.421581,-19.34684,0,0
-18.162762,-18.253897,-18.322374,0,0
-18.584116,-19.045168,-18.10704,0,0
-21.275782,-18.421581,-19.346838,0,0
-23.95923,-19.456335,-19.453161,0,0
-25.106989,-17.562702,-22.241856,0,0
-24.199211,-16.518156,-22.872053,0,0
-25.98038,-17.096249,-23.034216,0,0
-29.910696,-17.137901,-21.581854,0,0
-31.88372,-15.714674,-22.323149,0,0
-27.991608,-18.087025,-20.647804,0,0
-24.164856,-17.93475,-21.374344,0,0
-28.801868,-21.878162,-17.905807,0,0
-31.769821,-23.125912,-20.728146,0,0
-38.62064,-21.32519,-19.973186,0,0
-42.374996,-17.69658,-17.278404,0,0
-41.780437,-0.037312932,8.018822,0,0
-41.972916,0.20345442,7.7309074,0,0
-41.33787,-12.546946,-14.818149,0,0
-42.908363,-10.559032,-18.92822,0,0
-24.213923,-11.853268,-26.51556,0,0
-21.360119,-13.118955,-23.685406,0,0
-22.579851,-15.406572,-22.874685,0,0
-26.802343,-16.578444,-23.82579,0,0
-33.753067,-27.85648,-14.865218,0,0
-33.311966,-21.29369,-14.831649,0,0
-35.41015,-18.951883,-14.022809,0,0
-27.829344,-22.8267,-19.207323,0,0
-22.570162,-18.224655,-8.777823,0,0
-22.675085,-19.04079,-7.754287,0,0
-26.888138,-18.396267,-11.051492,0,0
-29.91073,-17.13795,-21.581795,0,0
-25.193954,-12.8267,-26.17651,0,0
-23.050266,-11.009328,-26.61751,0,0
-21.328773,-10.89482,-25.73739,0,0
-20.446491,-13.558447,-21.88307,0,0
-22.620253,-18.17534,-20.272026,0,0
-23.630795,-16.663874,-22.410715,0,0
-25.980335,-17.096241,-23.034218,0,0
-27.459139,-18.363935,-10.843953,0,0
-33.679977,-23.30523,-20.929342,0,0
-39.62534,-24.941135,-12.082471,0,0
-15.978521,-18.754484,-35.834743,0,0
22.213545,0.25808793,32.355312,0,0
35.59162,7.242172,-15.148636,0,0
-38.74378,-19.632936,15.975862,0,0
-33.282043,-23.14035,14.529251,0,0
-18.068792,-27.607145,-0.47675347,0,0
-17.24341,-24.541422,1.5993118,0,0
-17.612614,-25.93514,-1.9269415,0,0
-18.403704,-26.522642,-5.352242,0,0
-15.863931,-31.531916,-7.294035,0,0
-30.859758,-24.816538,11.486674,0,0
-34.481068,-23.491161,10.369905,0,0
-37.343105,-21.049614,15.49864,0,0
-37.343105,-21.049614,15.49864,0,0
-16.487,-36.66158,-7.732965,0,0
-16.487545,-36.6617,-7.7329826,0,0
-35.133633,-18.298132,8.960995,0,0
-26.477066,-36.224678,-12.752122,0,0
-31.373724,-23.036636,-15.35614,0,0
-31.76942,-23.12591,-20.728233,0,0
-33.312958,-21.292,-14.831514,0,0
-38.204258,-25.961355,-12.922916,0,0
-43.85544,-16.905497,-2.09864,0,0
-31.184687,-23.091303,-7.1400557,0,0
-20.450705,-29.036821,-12.609312,0,0
-18.739113,-29.125034,-11.378632,0,0
-17.647993,-30.125801,-10.313667,0,0
-17.648424,-30.12581,-10.313666,0,0
-15.492983,-30.848291,-6.1379685,0,0
-30.053818,-23.125692,15.628408,0,0
-26.005655,-22.313349,21.395697,0,0
-41.505096,4.6874413,-0.6254976,0,0
-31.715097,-20.379652,19.784744,0,0
-28.844425,-23.10269,17.043356,0,0
-27.111639,-23.01898,19.112354,0,0
-30.85971,-24.816551,11.486699,0,0
-22.5426,-31.913721,-13.200769,0,0
-25.530636,-30.231335,-13.323874,0,0
-25.199238,-35.064568,-13.371582,0,0
-28.48487,-37.507828,-11.211536,0,0
32.663845,7.7401824,-26.82322,0,0
-43.517418,4.8110504,-0.4868649,0,0
27.970757,-21.748856,23.262981,0,0
-28.93164,18.063232,23.447351,0,0
28.102676,-21.256598,22.70397,0,0
-30.952679,-21.269281,19.027973,0,0
-27.694502,-20.998934,20.254774,0,0
-27.111006,-23.018965,19.11164,0,0
-27.464651,-22.927408,19.582302,0,0
-31.435152,-21.875376,16.054272,0,0
-36.06307,-22.89101,9.390314,0,0
36.46968,3.2121005,-25.501078,0,0
38.43258,1.2289679,-24.852272,0,0
-44.11634,-18.711317,5.232048,0,0
-24.888857,-26.786602,-15.566318,0,0
-24.643587,-22.500448,-17.836843,0,0
-26.799526,-24.604803,-16.250544,0,0
-23.102661,-37.19739,-9.214294,0,0
-30.742964,-38.473896,-8.57106,0,0
-43.85541,-16.905493,-2.0986898,0,0
23.546724,-7.9043345,35.032253,0,0
-39.99484,-4.79022,-0.32310295,0,0
-22.321033,-11.922841,-25.646244,0,0
-18.393585,-9.662608,-23.85621,0,0
-20.230953,-10.456876,-25.15665,0,0
-25.194061,-12.826737,-26.176535,0,0
-40.032135,-20.077621,-19.09036,0,0
10.7487955,3.1524925,-20.409369,1,1
10.76019,3.3877776,-20.179985,1,1
11.062891,4.601343,-19.549313,1,1
12.8823185,6.5195093,-21.185091,1,1
12.965698,6.493832,-21.282385,1,1
27.02397,-7.4375625,-4.8300123,1,1
27.716246,-7.4126315,-3.7450101,1,1
27.760735,-7.4070044,-3.677743,1,1
27.783064,-7.4087844,-3.641962,1,1
27.39716,-14.5801935,2.2792983,1,1
23.484203,-20.635242,8.725905,1,1
23.626863,-20.698978,8.754081,1,1
23.836027,-20.744223,8.773293,1,1
24.008219,-20.759586,8.778982,1,1
24.191193,-20.761784,8.774761,1,1
29.108227,-19.120003,9.725755,1,1
29.074675,-19.28353,9.737956,1,1
28.988337,-19.444376,9.6617775,1,1
9.916742,-25.036514,21.642511,1,1
9.889998,-25.024258,21.64218,1,1
9.857794,-24.997784,21.63846,1,1
9.817042,-24.941545,21.626144,1,1
9.719317,-24.830452,21.605019,1,1
9.748937,-24.85645,21.608088,1,1
9.962096,-25.026062,21.62326,1,1
10.0504465,-25.054153,21.609928,1,1
10.050197,-25.04709,21.610594,1,1
10.039132,-25.05207,21.616802,1,1
10.009105,-25.03294,21.617758,1,1
9.908483,-24.982985,21.625847,1,1
9.814939,-24.889435,21.612427,1,1
9.681594,-24.72824,21.579811,1,1
9.560123,-24.544596,21.537003,1,1
9.294394,-24.12955,21.4332,1,1
9.207597,-23.803526,21.36146,1,1
9.186206,-23.721272,21.348083,1,1
9.041577,-23.69731,21.349789,1,1
9.046021,-23.595053,21.38171,1,1
7.1627293,-22.401493,22.79067,1,1
7.0718822,-22.351088,22.873959,1,1
7.066277,-22.35377,22.873077,1,1
7.098886,-22.374834,22.837294,1,1
7.212585,-22.45314,22.706556,1,1
7.356306,-22.558008,22.532364,1,1
7.504003,-22.678627,22.338919,1,1
7.638088,-22.806034,22.145298,1,1
7.767597,-23.03121,21.817335,1,1
7.803524,-23.109177,21.709846,1,1
7.87277,-23.223705,21.57623,1,1
8.010163,-23.429052,21.372934,1,1
8.097529,-23.527493,21.297373,1,1
7.93066,-23.313461,21.486969,1,1
7.79603,-23.172394,21.605354,1,1
7.764357,-23.155504,21.606924,1,1
7.7647443,-23.192446,21.552797,1,1
7.8157554,-23.331902,21.387424,1,1
7.856402,-23.480703,21.211039,1,1
7.8879933,-23.535702,21.158377,1,1
8.067824,-23.585257,21.206684,1,1
8.142395,-23.586796,21.251839,1,1
8.194516,-23.610334,21.260283,1,1
8.1705885,-23.625845,21.236233,1,1
8.133739,-23.638872,21.190557,1,1
8.110165,-23.64323,21.161268,1,1
8.103206,-23.657362,21.1241,1,1
22.828413,-27.962605,9.356283,1,1
22.792076,-27.901701,9.309961,1,1
22.75933,-27.840353,9.291925,1,1
22.68386,-27.70373,9.247104,1,1
22.608707,-27.532488,9.18254,1,1
22.543503,-27.362831,9.121262,1,1
22.300459,-27.363333,8.994824,1,1
22.218021,-27.314484,8.902552,1,1
22.169476,-27.294344,8.788797,1,1
22.132893,-27.294733,8.585196,1,1
22.112501,-27.31568,8.412472,1,1
22.1008,-27.314688,8.329709,1,1
22.087732,-27.303623,8.262847,1,1
22.064247,-27.29767,8.175868,1,1
22.035822,-27.353886,8.038917,1,1
21.948912,-28.284567,6.5311766,1,1
21.964594,-28.408781,6.476094,1,1
21.973103,-28.453648,6.485523,1,1
21.973204,-28.459341,6.485821,1,1
21.97265,-28.457829,6.4877105,1,1
21.97632,-28.488337,6.493877,1,1
21.990385,-28.5412,6.5078363,1,1
-6.941921,-26.237265,-24.73264,1,1
-6.986718,-26.20137,-24.485355,1,1
-7.0469294,-26.201769,-24.380907,1,1
-7.080942,-26.19369,-24.338535,1,1
-6.693799,-26.332659,-24.361448,1,1
-6.3971567,-26.451849,-24.398563,1,1
-6.314081,-26.477524,-24.411188,1,1
-6.0623007,-26.63714,-24.433939,1,1
-5.650606,-26.961226,-24.479185,1,1
-5.4218316,-27.212894,-24.505228,1,1
2.2242322,-31.232845,-25.83315,1,1
1.1628016,-31.806194,-28.045664,1,1
0.9612563,-31.836113,-28.486595,1,1
0.89476335,-31.83004,-28.620502,1,1
0.9132093,-31.793222,-28.601213,1,1
0.8796401,-31.691473,-28.734991,1,1
0.8727491,-31.60903,-28.803408,1,1
0.83528036,-31.676683,-28.830723,1,1
0.85302263,-31.775043,-28.724463,1,1
0.8103033,-31.842937,-28.767942,1,1
0.7551888,-31.810532,-28.909832,1,1
0.71278805,-31.85075,-28.976744,1,1
0.71933126,-31.825136,-28.97977,1,1
0.72802943,-31.769941,-28.993952,1,1
0.76965314,-31.76071,-28.929813,1,1
0.82500046,-31.784367,-28.797262,1,1
0.8054689,-31.725628,-28.865995,1,1
0.7704944,-31.765766,-28.909592,1,1
0.7378715,-31.748209,-28.973907,1,1
0.4758197,-31.078585,-29.531317,1,1
-0.111948416,-30.07064,-30.437763,1,1
-1.6641325,-28.990515,-31.500988,1,1
-2.284691,-29.403149,-33.029984,1,1
-2.3865721,-29.363632,-33.071636,1,1
-2.491228,-29.317884,-32.994568,1,1
-2.5244408,-29.283659,-32.895023,1,1
-2.4987085,-29.33301,-33.201508,1,1
-2.4584277,-29.353378,-33.400265,1,1
-2.368307,-29.381302,-33.630093,1,1
-2.3179643,-29.388142,-33.69746,1,1
-2.2673275,-29.389904,-33.63244,1,1
-2.2083542,-29.387224,-33.58282,1,1
-2.1789484,-29.360552,-33.316105,1,1
-2.1024032,-29.277542,-32.87234,1,1
-1.9222428,-28.903566,-31.578667,1,1
-2.0191913,-28.754116,-31.03504,1,1
-2.128248,-28.720798,-30.786922,1,1
-2.255183,-28.764673,-30.322983,1,1
-2.4241705,-28.897633,-29.536386,1,1
-2.421851,-28.936665,-29.30491,1,1
-2.4594433,-29.070135,-28.903738,1,1
-2.4412994,-29.316246,-28.268444,1,1
-2.4963832,-29.595976,-27.303448,1,1
-2.5674078,-29.761488,-26.686008,1,1
-2.5318468,-30.072018,-25.93988,1,1
-2.4192767,-30.40486,-25.491808,1,1
-2.2793307,-30.71881,-25.21776,1,1
-2.1238794,-30.97454,-24.91267,1,1
-1.3425651,-31.993286,-24.085373,1,1
-1.3239198,-32.09515,-23.798527,1,1
-1.5880256,-31.898973,-23.055841,1,1
-1.613061,-31.864944,-22.921566,1,1
-1.6385177,-31.859854,-22.891983,1,1
-1.6699934,-31.862926,-22.824932,1,1
-1.6753258,-31.871538,-22.804247,1,1
-1.66915,-31.873621,-22.831717,1,1
-1.7103723,-31.906849,-22.745323,1,1
-1.7527792,-31.92256,-22.686289,1,1
-1.6853584,-31.878456,-22.846453,1,1
-1.6826193,-31.886076,-22.830679,1,1
-1.7783304,-31.947329,-22.623543,1,1
-1.9803613,-32.13355,-22.23292,1,1
-2.408862,-32.47741,-21.45152,1,1
-2.6438463,-32.634357,-21.044462,1,1
-2.8045506,-32.717472,-20.765507,1,1
-2.9355116,-32.68388,-20.586403,1,1
-3.1064844,-32.601112,-20.36791,1,1
-3.298593,-32.653553,-20.163034,1,1
-3.7503664,-32.81177,-19.645164,1,1
-3.9638207,-32.934155,-19.218124,1,1
-4.1477013,-33.078808,-18.69162,1,1
-4.3807583,-33.189693,-18.012094,1,1
-4.465207,-33.193058,-17.841967,1,1
-4.5501266,-33.230328,-17.785013,1,1
-4.651812,-33.292076,-17.792334,1,1
-4.7611923,-33.273415,-17.76455,1,1
-4.6111865,-33.35253,-17.753407,1,1
-4.5049343,-33.45622,-17.707237,1,1
-4.446422,-33.521122,-17.58521,1,1
-4.4377217,-33.442104,-17.502802,1,1
-4.28185,-33.467125,-17.33775,1,1
-3.7660127,-33.717625,-17.035515,1,1
-3.5119529,-33.98361,-17.180525,1,1
-3.5159152,-33.979706,-17.236229,1,1
-3.503416,-34.027946,-17.343084,1,1
-3.628277,-33.925346,-17.289253,1,1
-3.9488194,-33.427944,-16.812737,1,1
-3.8854542,-33.362526,-16.639929,1,1
-4.013082,-33.210815,-16.65547,1,1
-4.113916,-33.16712,-16.774403,1,1
-4.430537,-32.823265,-16.704288,1,1
-4.7710347,-32.395184,-16.427954,1,1
-4.114005,-33.05314,-17.000402,1,1
-3.5924282,-33.59366,-17.300816,1,1
-3.5285401,-33.711735,-17.309372,1,1
-3.5322266,-33.684593,-17.162811,1,1
-3.706237,-33.4913,-17.170525,1,1
-4.016647,-33.171993,-17.116621,1,1
-4.3873496,-32.862972,-17.45478,1,1
-4.5279913,-32.84011,-17.605955,1,1
-4.6080737,-32.903187,-17.51193,1,1
-4.654325,-32.591915,-16.603062,1,1
-4.4330344,-32.720737,-16.508673,1,1
-3.8807435,-33.384003,-16.685442,1,1
-3.7165213,-33.492992,-16.597824,1,1
-3.7118773,-33.535378,-16.660658,1,1
-3.9321249,-33.31309,-16.623013,1,1
-4.2137933,-32.900333,-16.412722,1,1
-4.2948623,-32.83689,-16.40733,1,1
-4.061195,-33.243015,-16.715141,1,1
-4.022887,-33.06582,-16.385885,1,1
-3.844335,-32.38556,-15.135745,1,1
-3.8284109,-31.851137,-14.431229,1,1
-4.1638827,-31.65031,-14.26492,1,1
-4.5033545,-31.888874,-14.36634,1,1
-4.537274,-31.95884,-14.434824,1,1
-4.467342,-31.964464,-14.44869,1,1
-4.1779227,-32.043827,-14.478787,1,1
-3.8985982,-32.05784,-14.368617,1,1
-3.639537,-31.73275,-14.023254,1,1
-3.5302675,-31.39589,-13.75897,1,1
-3.490952,-31.429468,-13.807592,1,1
-3.4977584,-31.667921,-13.982433,1,1
-3.4172611,-31.713017,-14.0194235,1,1
-3.155451,-31.205263,-13.774295,1,1
-2.0723705,-29.73045,-13.681239,1,1
-1.48998,-29.010912,-13.852146,1,1
-1.3371296,-28.739723,-13.928342,1,1
-1.3053044,-28.540743,-13.92122,1,1
-1.3924012,-28.39695,-13.81986,1,1
-1.4215928,-28.278645,-13.792309,1,1
-1.2593949,-27.909836,-13.892748,1,1
-1.0803844,-27.570827,-14.0125675,1,1
-0.944055,-27.315233,-14.107489,1,1
-0.84133196,-26.846489,-14.013333,1,1
-0.82909316,-26.630161,-13.950235,1,1
-0.9800307,-27.148321,-13.993057,1,1
-1.0339147,-27.28444,-13.982244,1,1
-1.0285132,-27.273062,-13.968005,1,1
-1.0073402,-27.225018,-13.982765,1,1
-1.0195944,-27.296507,-13.985392,1,1
-0.9854753,-27.19089,-13.991288,1,1
-0.8459477,-26.65686,-13.911392,1,1
-0.67822045,-25.950836,-13.71128,1,1
-0.5939561,-25.645147,-13.5237465,1,1
-0.815537,-26.38176,-13.757736,1,1
-0.97160375,-27.37519,-13.954634,1,1
-0.93507856,-27.35958,-14.004681,1,1
-0.74469715,-26.652805,-13.913954,1,1
-0.45217377,-25.82584,-13.738262,1,1
0.26554945,-24.474398,-13.7316885,1,1
0.29731768,-24.315516,-13.629812,1,1
0.0224174,-24.520487,-13.564727,1,1
-0.55942017,-25.701792,-13.678513,1,1
-0.64276224,-25.904,-13.73875,1,1
-0.56306225,-25.642567,-13.708384,1,1
-0.11263198,-24.713459,-13.622538,1,1
0.21695401,-24.29349,-13.506772,1,1
-2.2155154,-0.51701885,-32.38092,1,1
-2.5178,-0.41817516,-32.509136,1,1
-2.21485,-0.38130182,-32.8025,1,1
-1.9732112,-0.3437192,-33.13969,1,1
-2.0704472,-0.3752649,-32.99181,1,1
-2.2873976,-0.44985887,-32.556423,1,1
-2.287535,-0.52314186,-32.20027,1,1
-1.5621558,-0.9863503,-31.43845,1,1
-1.4396583,-1.1949899,-31.27502,1,1
-1.4976285,-1.3015116,-31.132925,1,1
-1.6878123,-1.4469082,-30.916092,1,1
-9.550601,5.8962536,-21.379837,1,1
-9.839511,5.7504034,-21.228838,1,1
-10.009913,5.5924993,-21.314114,1,1
-10.353496,5.3075356,-22.549671,1,1
-11.324674,4.962428,-23.00659,1,1
-12.801783,5.810218,-25.687176,1,1
-13.067393,5.9250336,-26.286396,1,1
-12.948874,5.8368692,-25.889257,1,1
-12.820192,5.863982,-25.634613,1,1
-12.6894865,5.8016596,-25.585875,1,1
-10.503288,5.4435945,-23.140394,1,1
-10.308938,5.2815022,-22.383127,1,1
-2.3985527,-16.825073,-18.839428,0,0
-6.585482,-19.82615,-16.587461,0,0
-10.6884365,-15.14417,-11.55924,0,0
-13.309386,-12.725008,-11.196321,0,0
-12.675733,-13.9900675,-15.524367,0,0
-10.766631,-13.724533,-19.117777,0,0
-11.590236,-14.518988,-18.840878,0,0
-13.664343,-16.154291,-18.65301,0,0
-16.736805,-14.88184,-18.882336,0,0
-14.00374,-9.067307,-13.342064,0,0
-13.413503,-8.427417,-13.3057,0,0
-5.3606677,-5.155749,-13.603194,0,0
-1.6904638,-5.2539005,-17.91508,0,0
-0.41385818,-6.083033,-18.453615,0,0
0.46411258,-7.794903,-19.811977,0,0
1.0512049,-8.511257,-19.928822,0,0
-1.5714836,-10.609557,-20.105167,0,0
-2.4831018,-10.7592535,-20.171558,0,0
-5.0798,-12.680864,-20.349224,0,0
-8.367026,-12.964094,-19.585945,0,0
-11.310216,-13.919594,-18.960861,0,0
-15.252341,-14.66319,-18.918247,0,0
-18.912315,-15.37692,-19.420559,0,0
-21.946875,-18.25032,-19.82572,0,0
-18.5969,-20.15538,-17.651772,0,0
-10.814827,-10.953508,-4.9309974,0,0
-9.948911,-10.040858,-4.345049,0,0
-10.376849,-10.257655,-4.004395,0,0
-12.468477,-11.737618,-5.706042,0,0
-14.4418955,-14.307486,-7.6817083,0,0
-16.321932,-18.748926,-9.216814,0,0
-16.994247,-21.980055,-9.3725395,0,0
-19.56782,-26.18523,-13.182051,0,0
-19.342524,-27.755697,-12.304349,0,0
-17.660952,-30.71017,-10.236681,0,0
-15.941977,-31.002165,-7.629721,0,0
-18.014608,-29.365181,-10.094481,0,0
-14.999968,-22.724276,-12.417166,0,0
-14.818636,-22.72296,-12.337678,0,0
-14.037868,-25.71992,-9.378616,0,0
-13.908984,-26.562077,-7.8687477,0,0
-15.041142,-25.868233,-4.9645896,0,0
-23.131598,-25.790096,15.453494,0,0
-40.45554,4.878827,-2.0540464,0,0
-26.64948,-24.869074,15.083142,0,0
-16.774418,-30.880863,-9.2254505,0,0
-15.121291,-20.998552,-7.3823805,0,0
-39.13935,7.9897556,-4.8719497,0,0
-12.704295,-22.458344,-6.8879304,0,0
-13.771303,-26.3626,-7.9917006,0,0
-14.045721,-27.176918,-6.835248,0,0
-23.287558,-24.401516,17.030426,0,0
-20.228794,-22.886679,19.710302,0,0
-24.700176,-23.436897,18.21951,0,0
-15.81223,-20.818104,-7.411983,0,0
-13.614165,-19.57142,-8.908444,0,0
-13.80603,-19.781082,-8.679865,0,0
-15.126976,-25.311829,-11.432463,0,0
-17.515835,-27.230337,-11.305122,0,0
-23.533852,-24.30269,-16.008665,0,0
-21.97236,-9.131438,-17.15908,0,0
-10.184112,-11.752544,-16.699049,0,0
-9.847675,-11.677468,-16.71085,0,0
-9.876038,-11.902519,-16.56781,0,0
-12.515352,-19.066597,-15.254085,0,0
-14.827768,-22.456263,-14.089938,0,0
-17.542065,-23.552212,-15.306649,0,0
-21.803495,-24.086546,-15.622527,0,0
-22.564754,-29.20628,-11.282194,0,0
-21.653143,-30.785862,-12.995857,0,0
-18.388403,-28.480547,-11.349521,0,0
-14.556492,-20.382074,-7.9418335,0,0
-11.325496,-17.013823,-8.505603,0,0
-11.102515,-17.01118,-8.573019,0,0
-13.523868,-20.485003,-10.557631,0,0
-15.888485,-26.498709,-10.550914,0,0
-15.39337,-27.272434,-9.182947,0,0
-16.658009,-24.033897,-14.522406,0,0
-17.541931,-23.552155,-15.306715,0,0
-23.432978,-2.7820249,-17.32463,0,0
-26.792326,3.0676367,-20.702606,0,0
-28.653633,5.5149956,-20.893154,0,0
-26.918003,3.0353265,-20.682138,0,0
-26.980425,2.6758657,-20.383364,0,0
-27.242954,2.0089812,-20.114498,0,0
-22.636026,-2.5600445,-18.736433,0,0
-22.52756,-2.8012478,-18.419954,0,0
-22.167978,-2.8754025,-17.879148,0,0
-22.805067,-6.4296904,-17.84229,0,0
-23.788378,-9.055433,-16.977228,0,0
-20.628588,-22.264345,-16.748484,0,0
-21.3315,-22.229586,-16.867872,0,0
-21.975136,-22.233139,-17.019552,0,0
-23.738626,-22.439821,-17.483541,0,0
-26.190264,-27.173077,-15.614518,0,0
-26.778608,-30.767756,-13.028258,0,0
-25.530636,-30.231329,-13.323876,0,0
-22.345625,-36.23856,-10.02087,0,0
-16.661297,-32.556995,-8.878295,0,0
-15.358715,-29.842619,-5.7473173,0,0
-26.677477,-24.321863,15.944446,0,0
-25.539543,-22.80355,19.879005,0,0
-27.464756,-22.927582,19.582626,0,0
-31.303965,-23.76689,7.6525445,0,0
-30.742935,-38.474285,-8.571182,0,0
-30.037706,-23.833742,-15.679574,0,0
-21.932962,-21.195517,-17.626137,0,0
-19.539938,-21.363651,-17.186543,0,0
-19.004961,-21.403624,-17.119198,0,0
-17.737202,-21.202532,-17.087889,0,0
-19.518984,-22.344929,-16.582748,0,0
-13.33535,-21.389153,-16.608444,0,0
-12.5526085,-20.724182,-17.060081,0,0
-11.352556,-20.670069,-16.856583,0,0
-12.023177,-21.414032,-16.349463,0,0
-14.190153,-21.085962,-17.128925,0,0
-16.056698,-18.402477,-17.931423,0,0
-16.64907,-15.091817,-18.396088,0,0
-12.260673,-12.199313,-18.465126,0,0
-12.440213,-12.074713,-18.48571,0,0
-15.476713,-13.800458,-19.17329,0,0
-16.454744,-17.225176,-18.363333,0,0
-16.247097,-16.53192,-18.492828,0,0
-15.57252,-15.427421,-18.728418,0,0
-16.16393,-17.298906,-18.328236,0,0
-17.737202,-21.202532,-17.087889,0,0
-20.456125,-23.784279,-15.5387745,0,0
-23.0895,-25.66446,-15.271309,0,0
-23.209463,-32.700947,-13.300064,0,0
-24.233833,-38.200943,-7.898147,0,0
-17.770277,-41.425495,-12.013529,0,0
-22.345474,-36.238445,-10.020861,0,0
-17.914589,-38.19733,-10.844356,0,0
-17.77028,-41.42543,-12.013575,0,0
-44.32151,4.8526454,-2.6461883,0,0
-37.087765,-8.9824095,6.302659,0,0
35.81521,7.335987,-15.727996,0,0
22.092304,1.0469242,32.161022,0,0
-18.414104,-28.153141,26.018436,0,0
43.674194,11.091717,14.961071,0,0
-31.391258,-27.91346,-15.368201,0,0
-29.068434,-11.9188795,-15.7202425,0,0
-28.688066,-24.341082,-16.016127,0,0
-25.199389,-35.06439,-13.371894,0,0
-17.92297,-38.130527,-10.795969,0,0
-28.48486,-37.507824,-11.211479,0,0
-42.788303,5.247898,-5.1768565,0,0
-21.649364,-35.030403,-10.741223,0,0
-17.802017,-31.609959,-10.328118,0,0
-17.660599,-30.708591,-10.2364,0,0
-20.024221,-31.873688,-11.589616,0,0
-16.539024,-35.456226,-8.139391,0,0
-23.102604,-37.19738,-9.214433,0,0
-17.922794,-38.13055,-10.796079,0,0
-16.486975,-36.661697,-7.7329593,0,0
-15.435795,-31.270277,-5.7866287,0,0
-28.012907,-24.265663,15.256725,0,0
-25.781506,-22.619795,20.482134,0,0
-24.453629,-22.141172,19.094786,0,0
-27.112167,-23.018831,19.112095,0,0
-30.384544,-21.8455,18.436005,0,0
-42.1492,4.709593,-3.4825728,0,0
-18.79925,-22.282122,-13.089527,0,0
-19.54079,-21.363222,-17.186731,0,0
-40.808605,6.506217,-7.158727,0,0
-21.611605,-17.514582,-20.188253,0,0
-24.164642,-17.934769,-21.374374,0,0
-28.90108,-22.977243,-19.721943,0,0
-31.499582,-11.070198,-15.023787,0,0
-28.484783,-37.507847,-11.211541,0,0
38.40736,2.754486,-22.614223,0,0
-42.761936,0.67295825,-18.016438,0,0
-34.32177,-22.801912,14.76439,0,0
-30.053822,-23.125704,15.628177,0,0
-28.843664,-23.075968,17.07551,0,0
-27.11217,-23.018833,19.112093,0,0
-27.832613,-20.903389,20.41832,0,0
-31.715704,-20.379313,19.783838,0,0
-38.74355,-19.632662,15.97551,0,0
-36.063103,-22.891207,9.390327,0,0
-17.922794,-38.13055,-10.796079,0,0
-17.770275,-41.425434,-12.013575,0,0
35.325867,7.121767,-25.90404,0,0
31.99571,6.61661,-24.99488,0,0
-34.678337,-2.744097,4.044977,0,0
35.74688,7.1122746,-15.370127,0,0
-38.74391,-19.632698,15.975818,0,0
-16.53924,-35.45681,-8.139424,0,0
-21.652946,-30.785496,-12.996181,0,0
-42.344326,5.4292707,-5.532757,0,0
-29.176718,-12.04329,-16.224434,0,0
-30.010517,-12.047828,-16.918375,0,0
-32.32918,-10.788407,-16.2272,0,0
-35.410046,-18.951715,-14.0228195,0,0
-35.038517,-17.7736,-21.288885,0,0
-27.991608,-18.087019,-20.647806,0,0
-27.69026,-20.292433,-19.48089,0,0
-27.99136,-18.086815,-20.647762,0,0
-28.831772,-17.664133,-21.049377,0,0
-31.567722,-19.349178,-20.96178,0,0
-31.373625,-23.03653,-15.356417,0,0
-32.035202,-34.317287,-7.448746,0,0
-34.671204,-8.730563,-11.912335,0,0
-35.156708,-7.797539,-10.736897,0,0
-44.115498,-18.7112,5.231786,0,0
-27.361029,-18.294252,-20.464605,0,0
-23.53558,-18.083344,-20.87921,0,0
-19.300581,-16.06576,-23.39381,0,0
-27.829344,-22.826626,-19.20726,0,0
-28.582067,-27.568048,-15.53537,0,0
-28.582201,-27.567766,-15.535371,0,0
-28.901087,-22.977282,-19.721869,0,0
-27.69026,-20.292433,-19.48089,0,0
-25.528065,-24.561367,-16.263039,0,0
-20.935526,-27.396212,-13.329197,0,0
-18.388403,-28.480547,-11.349514,0,0
-15.941967,-31.002378,-7.62975,0,0
-28.347464,-23.46597,16.644358,0,0
-27.464918,-22.927803,19.582682,0,0
-41.694416,4.658381,-0.8084282,0,0
-30.125954,-22.738544,22.985756,0,0
20.71892,32.836514,-20.71049,0,0
-28.842554,18.540464,23.065239,0,0
-24.389965,-10.3691025,33.7656,0,0
-24.745382,-17.52367,24.772146,0,0
-26.3783,-21.966948,22.380182,0,0
-29.792137,-7.0688076,-10.589073,0,0
-38.03289,6.887043,-14.82129,0,0
-28.372759,-5.259741,-13.6578865,0,0
-29.064833,-5.234351,-14.123793,0,0
-30.936691,-5.991124,-15.257651,0,0
-32.47288,-7.714099,-14.070294,0,0
-15.978685,-18.75486,-35.83465,0,0
-43.07992,-14.595829,4.263911,0,0
-29.068447,-11.918847,-15.720213,0,0
-24.164896,-17.934706,-21.374544,0,0
-42.64893,6.0296926,-6.9773965,0,0
-31.769644,-23.126839,-20.728626,0,0
-35.970444,-23.162283,-20.954788,0,0
-41.59241,-12.640644,-8.6960335,0,0
-42.576942,-7.0357413,2.5890636,0,0
-40.0321,-20.077557,-19.090218,0,0
-29.563835,-7.3009605,-18.375132,0,0
-31.606981,-7.951229,-15.980441,0,0
-34.50133,-8.580828,-11.059928,0,0
-38.18179,-11.838172,-1.3178031,0,0
-17.922972,-38.13048,-10.795702,0,0
-30.946299,-24.299534,8.197566,0,0
-31.98206,-23.602158,14.235996,0,0
-28.288887,-20.41076,21.142307,0,0
-24.215437,-19.650024,23.799995,0,0
-22.30065,-20.297152,26.740974,0,0
-27.106203,-19.40352,26.557537,0,0
-31.440407,-5.909994,-10.913496,0,0
-44.5297,4.3838396,-5.4541874,0,0
-33.423355,-6.9666696,-13.808113,0,0
-32.947334,30.919113,18.892076,0,0
-13.873019,-11.895785,38.903576,0,0
-34.85992,-8.201034,-10.905587,0,0
-34.859974,-8.201026,-10.905606,0,0
22.013641,0.81523895,32.380093,0,0
22.092304,1.0469242,32.161022,0,0
-31.387346,-32.46078,-11.396552,0,0
-27.57767,-10.244804,-18.420769,0,0
-28.089907,-12.410371,-18.533604,0,0
-31.769573,-23.126917,-20.728739,0,0
-32.314537,-10.720201,-15.184433,0,0
-45.016468,5.2730093,-4.120438,0,0
-43.582726,-23.34947,-1.4174157,0,0
-26.476927,-36.224407,-12.753051,0,0
-25.199408,-35.06394,-13.37195,0,0
-31.39154,-27.913502,-15.367977,0,0
-28.48487,-37.507828,-11.211536,0,0
35.325787,7.121623,-25.90424,0,0
-37.490517,-12.042864,7.580552,0,0
-37.087837,-8.982511,6.302658,0,0
35.59162,7.242172,-15.148636,0,0
-32.344715,-7.3035455,23.909416,0,0
-36.063,-22.891054,9.390624,0,0
-34.481068,-23.491179,10.3698845,0,0
-23.102547,-37.19728,-9.214463,0,0
-33.312225,-21.292826,-14.831686,0,0
-38.482254,-16.53539,-11.029886,0,0
-43.748905,-21.85594,-9.606098,0,0
-44.76733,-3.6993983,-10.678029,0,0
-39.729034,-13.426074,-20.29713,0,0
-44.73187,6.5038147,-6.789438,0,0
-32.369106,-19.07297,-21.125853,0,0
-27.690283,-20.292208,-19.48085,0,0
-26.717186,-22.729353,-18.701822,0,0
-26.778618,-30.76784,-13.028225,0,0
-17.863792,-39.7012,-11.351501,0,0
-38.117016,-20.83591,5.526356,0,0
-44.606808,5.0166445,-1.6688832,0,0
-15.9786005,-18.75431,-35.8348,0,0
-39.373714,-4.919788,-0.71015483,0,0
-49.24393,-3.4090843,-2.6333852,0,0
-28.48486,-37.507824,-11.211479,0,0
-17.92289,-38.130775,-10.796282,0,0
-35.133785,-18.299307,8.961175,0,0
-35.823765,-22.020489,15.135435,0,0
-33.105995,-18.401516,21.356903,0,0
20.71894,32.83657,-20.710499,0,0
-28.842554,18.540464,23.065239,0,0
-18.541218,-37.066868,14.849265,0,0
-37.29537,-21.946337,7.6143928,0,0
-18.001892,-34.71195,-10.290138,0,0
-20.537083,-32.895355,-11.493542,0,0
-24.423168,-29.638762,-13.562863,0,0
-30.03726,-23.833813,-15.679692,0,0
-35.410248,-18.951859,-14.022809,0,0
-43.85544,-16.905497,-2.09864,0,0
43.674194,11.091717,14.961071,0,0
35.591618,7.242175,-15.148631,0,0
35.746273,7.112403,-15.369249,0,0
-15.978476,-18.754301,-35.83487,0,0
-33.753075,-27.856537,-14.865245,0,0
-29.880402,-27.742258,-15.486343,0,0
-29.617292,-31.95077,-12.135715,0,0
-44.11623,-18.71126,5.2317905,0,0
-34.678467,-2.7440968,4.0449767,0,0
-25.505188,4.717639,23.762781,0,0
35.746273,7.112403,-15.369249,0,0
-32.457096,-2.0001507,20.38392,0,0
-20.057457,-4.7540107,-16.41324,1,1
-28.186928,0.124561645,-24.169264,1,1
-28.041536,0.7264055,-24.083265,1,1
-28.014193,0.8450285,-24.075838,1,1
-27.988836,0.9367121,-24.052383,1,1
-27.917763,1.1801442,-23.868664,1,1
-27.82679,1.4810214,-23.263037,1,1
-5.2999153,1.7771246,-21.892015,1,1
0.624964,1.1865704,-21.562025,1,1
3.775281,1.9364239,-22.513847,1,1
3.809122,1.9176109,-22.55193,1,1
3.7723498,1.9380589,-22.516413,1,1
3.510323,2.0592258,-22.283894,1,1
3.1068032,2.249682,-21.942871,1,1
2.3300986,2.409237,-21.64398,1,1
1.568,2.284859,-21.672438,1,1
1.6133275,2.2302716,-21.676888,1,1
5.5910206,-0.40134317,-24.8741,1,1
5.8771405,-0.38854688,-24.86975,1,1
6.128097,-1.051728,-24.432898,1,1
6.578002,-1.0706154,-23.546522,1,1
6.954987,0.026916578,-22.47399,1,1
8.9831505,3.6406348,-20.129946,1,1
9.003688,3.6637256,-20.114525,1,1
8.577431,3.6459894,-20.169506,1,1
6.583483,3.6516418,-20.928164,1,1
6.3240113,3.5832295,-21.077372,1,1
7.324836,4.5783243,-21.65131,1,1
7.4092236,4.635296,-21.703878,1,1
8.057054,4.669534,-21.816483,1,1
11.107122,4.587258,-20.095684,1,1
12.908991,5.8345633,-20.51978,1,1
26.394072,-8.249566,-5.2734847,1,1
26.414955,-8.462747,-5.1129794,1,1
26.392078,-8.706629,-5.0216417,1,1
22.420805,-22.005703,0.15881805,1,1
22.446196,-22.083265,0.15819614,1,1
22.535673,-22.12953,0.08081673,1,1
26.979475,-24.81829,1.4088749,1,1
27.079285,-24.862803,1.4566265,1,1
27.148619,-24.89397,1.5040723,1,1
27.310045,-24.962868,1.6184514,1,1
27.371681,-24.985302,1.6614687,1,1
27.532452,-25.036934,1.7702705,1,1
27.557245,-25.046793,1.7871858,1,1
27.795372,-25.141241,1.9918442,1,1
28.076479,-25.248186,2.22267,1,1
28.156878,-25.272163,2.2899828,1,1
28.228382,-25.306217,2.3440948,1,1
28.285032,-25.34226,2.3826225,1,1
28.368004,-25.38993,2.444359,1,1
28.428345,-25.423868,2.4903712,1,1
28.436937,-25.420511,2.4907594,1,1
28.437769,-25.414978,2.4866962,1,1
28.451216,-25.414633,2.4931555,1,1
28.408049,-25.38986,2.4709694,1,1
28.390816,-25.382607,2.4724278,1,1
28.359007,-25.35995,2.4578345,1,1
21.67976,-27.653835,9.075638,1,1
21.205523,-27.800104,9.063254,1,1
20.152288,-28.170223,9.134849,1,1
20.043219,-28.20561,9.143883,1,1
19.993307,-28.228476,9.143228,1,1
19.977154,-28.235739,9.138018,1,1
19.95829,-28.245453,9.13463,1,1
19.907904,-28.278296,9.134672,1,1
19.844212,-28.321661,9.128809,1,1
19.54347,-28.522636,9.112085,1,1
19.157843,-28.778278,9.088126,1,1
19.096704,-28.818853,9.083574,1,1
19.072678,-28.834377,9.079488,1,1
19.063194,-28.841372,9.074241,1,1
19.029486,-28.86386,9.068975,1,1
18.85485,-28.976501,9.056827,1,1
18.789276,-29.018923,9.050005,1,1
18.60764,-29.136234,9.029611,1,1
18.400564,-29.264105,9.019117,1,1
18.34144,-29.300016,9.017221,1,1
2.5587885,-31.409794,-23.150705,1,1
2.5266593,-31.42482,-23.276379,1,1
2.4997306,-31.436872,-23.327515,1,1
2.4753683,-31.447756,-23.357824,1,1
2.461929,-31.455215,-23.361519,1,1
2.4267204,-31.472258,-23.415964,1,1
2.3924186,-31.48766,-23.487324,1,1
2.3559225,-31.502655,-23.529041,1,1
2.2936075,-31.529854,-23.758108,1,1
2.2720976,-31.541399,-23.959505,1,1
2.276047,-31.538008,-24.137392,1,1
2.245489,-31.523827,-24.552113,1,1
2.1839004,-31.559643,-24.540203,1,1
2.1410542,-31.600073,-24.372646,1,1
2.0927117,-31.63261,-24.289518,1,1
2.154694,-31.587427,-24.025166,1,1
2.1777136,-31.574104,-23.90352,1,1
2.1769454,-31.57973,-23.88037,1,1
2.0843582,-31.648153,-24.084026,1,1
1.2591554,-32.291077,-25.39498,1,1
1.2208672,-32.343884,-25.45275,1,1
1.2372408,-32.316536,-25.477602,1,1
1.2437413,-32.292057,-25.441128,1,1
1.3555923,-32.16588,-25.161186,1,1
1.465967,-32.081028,-25.049639,1,1
1.3231758,-32.12728,-25.644478,1,1
1.6302027,-31.224667,-27.391968,1,1
1.5651252,-31.099405,-27.777298,1,1
1.5582019,-31.083729,-27.794956,1,1
1.6015555,-31.110312,-27.616686,1,1
1.6024517,-31.125689,-27.596777,1,1
1.4875569,-31.08748,-27.933163,1,1
1.3618599,-31.053812,-28.216167,1,1
1.2922499,-30.976227,-28.411564,1,1
1.2590935,-30.799925,-28.656294,1,1
1.1392208,-29.626322,-29.834631,1,1
1.0507512,-29.452097,-30.0182,1,1
0.93078375,-29.344246,-30.15698,1,1
0.52370495,-29.24581,-30.444183,1,1
0.5948385,-29.254047,-30.40325,1,1
0.59282255,-29.240631,-30.420328,1,1
0.3729659,-29.208363,-30.52836,1,1
0.12994424,-29.184208,-30.688015,1,1
-0.47269168,-29.16751,-31.208109,1,1
-0.43500376,-29.208546,-31.211483,1,1
-0.4313064,-29.233713,-31.216993,1,1
-0.3615312,-29.230457,-31.19919,1,1
-0.40428168,-29.243683,-31.296736,1,1
-0.5536189,-29.346313,-31.497036,1,1
-0.5121459,-29.360813,-31.424543,1,1
-0.4211718,-29.281158,-31.201502,1,1
-0.20466655,-29.263351,-30.915808,1,1
-0.039585367,-29.284664,-30.732742,1,1
-0.14522056,-29.29853,-30.790989,1,1
-0.022256227,-29.336443,-30.672136,1,1
-0.6592211,-29.234915,-31.206367,1,1
-1.6769652,-29.621809,-32.789173,1,1
-1.8229748,-29.596848,-33.096672,1,1
-1.7628306,-29.621372,-32.960194,1,1
-1.7200428,-29.643959,-33.028263,1,1
-1.6501926,-29.6643,-32.914272,1,1
-1.6479557,-29.644651,-32.88915,1,1
-1.7224265,-29.608454,-33.075226,1,1
-1.8843114,-29.518991,-33.53351,1,1
-1.863498,-29.539982,-33.46364,1,1
-1.7137909,-29.620695,-33.046574,1,1
-1.4853486,-29.66619,-32.592236,1,1
-1.3637782,-29.710794,-32.45405,1,1
-1.232799,-29.76891,-32.29081,1,1
-1.0429544,-29.78629,-32.024044,1,1
-1.1167132,-29.837875,-32.152813,1,1
-1.1499037,-29.885706,-32.22491,1,1
-1.0051,-29.921297,-32.020107,1,1
-0.49457633,-30.095633,-31.294659,1,1
-0.19492345,-30.21817,-30.83531,1,1
-0.08944921,-30.270447,-30.677923,1,1
0.0085930675,-30.327116,-30.522821,1,1
0.42252073,-30.593704,-29.86512,1,1
1.0768826,-30.848625,-28.815582,1,1
1.1124909,-30.894444,-28.736511,1,1
1.2706069,-30.943758,-28.434946,1,1
1.4496386,-31.026443,-27.97641,1,1
1.5983478,-31.260458,-27.049814,1,1
1.6411242,-31.401018,-26.455685,1,1
1.6442435,-31.418863,-26.387573,1,1
1.6321647,-31.441738,-26.376001,1,1
1.6311203,-31.505896,-26.194592,1,1
1.6496882,-31.585445,-25.924257,1,1
2.077598,-31.482035,-25.235159,1,1
2.360871,-31.286573,-25.199165,1,1
2.4360485,-31.244026,-25.120512,1,1
2.461209,-31.237232,-25.006483,1,1
2.4161026,-31.257978,-25.129486,1,1
2.368807,-31.276209,-25.269377,1,1
2.4826515,-31.265284,-25.097021,1,1
2.6824465,-31.229475,-24.805557,1,1
2.6405246,-31.252657,-24.680187,1,1
2.5748796,-31.264305,-24.60146,1,1
-1.3704658,-31.736467,-22.820066,1,1
-1.574977,-31.827234,-22.731962,1,1
-1.7852765,-31.965137,-22.473236,1,1
-2.3349948,-32.386517,-21.568316,1,1
-2.8089838,-32.60294,-20.82015,1,1
-3.385126,-32.76185,-20.162052,1,1
-3.1191435,-32.645256,-20.278858,1,1
-2.6211398,-32.51727,-20.87289,1,1
-2.6123254,-32.51849,-20.860992,1,1
-2.6602337,-32.57179,-20.732895,1,1
-2.6929216,-32.691895,-20.498526,1,1
-2.6271474,-32.81544,-20.320005,1,1
-2.354005,-33.067654,-20.42642,1,1
-2.0551205,-33.375034,-20.581194,1,1
-1.974232,-33.442177,-20.567066,1,1
-1.9540724,-33.471188,-20.435562,1,1
-2.287341,-34.37345,-16.896982,1,1
-2.469058,-34.23556,-16.410122,1,1
-3.3572664,-33.753414,-16.617723,1,1
-3.0260017,-34.10765,-16.790083,1,1
-2.9175634,-34.21482,-16.819971,1,1
-2.8451583,-34.277653,-16.81111,1,1
-2.769238,-34.25474,-16.635496,1,1
-2.7280304,-34.10156,-16.28226,1,1
-2.886289,-33.383858,-15.405423,1,1
-3.1972651,-32.070187,-14.432147,1,1
-2.7699926,-33.347317,-15.247952,1,1
-2.457893,-33.90738,-15.678108,1,1
-2.3520586,-34.093914,-15.860194,1,1
-2.320764,-34.126778,-15.870771,1,1
-2.3398395,-34.11509,-15.869968,1,1
-2.3811266,-34.085655,-15.8723545,1,1
-2.2173564,-34.29393,-16.123363,1,1
-2.1543067,-34.376972,-16.244593,1,1
-2.1579463,-34.371155,-16.24742,1,1
-2.21313,-34.33563,-16.236391,1,1
-2.2299292,-34.3075,-16.197496,1,1
-2.309825,-34.212086,-16.076977,1,1
-2.5097806,-34.01959,-15.910944,1,1
-2.5791864,-33.9943,-15.921277,1,1
-2.5435019,-34.0401,-15.934663,1,1
-2.550176,-33.982574,-15.8532,1,1
-2.859755,-33.55345,-15.60007,1,1
-3.3452375,-32.545864,-14.783201,1,1
-3.4296145,-31.95606,-14.231941,1,1
-3.4595351,-31.919104,-14.162552,1,1
-3.538981,-31.870459,-14.083081,1,1
-3.599842,-31.821299,-13.993918,1,1
-3.6503696,-31.551718,-13.820569,1,1
-3.5530326,-30.981089,-13.453833,1,1
-3.0998354,-29.591543,-12.620179,1,1
-3.1191857,-29.986427,-12.912285,1,1
-3.524044,-31.346317,-13.716615,1,1
-3.4577677,-32.177322,-14.206445,1,1
-3.4575884,-32.172913,-14.218013,1,1
-3.5751595,-31.856588,-14.017265,1,1
-3.5226982,-31.735727,-13.955534,1,1
-3.4934318,-31.3203,-13.710847,1,1
-3.5867865,-31.345108,-14.13699,1,1
-4.0075684,-30.569323,-15.408293,1,1
-4.091628,-30.501242,-15.483319,1,1
-4.070184,-30.49614,-15.426498,1,1
-4.0274243,-30.526133,-15.244029,1,1
-3.9754055,-31.170864,-14.590118,1,1
-4.036705,-31.45068,-14.191511,1,1
-4.244536,-31.300123,-14.632056,1,1
-4.140949,-30.859678,-16.335798,1,1
-4.1681633,-30.786158,-16.371733,1,1
-4.1682615,-30.723173,-16.280104,1,1
-4.1685343,-30.465092,-15.644098,1,1
-4.225924,-30.40953,-15.286931,1,1
-2.8381736,-28.797243,-12.81897,1,1
-1.879335,-28.24134,-13.260446,1,1
-1.3752047,-28.091928,-13.540098,1,1
-0.83639383,-28.018078,-13.518878,1,1
0.086833075,-27.830238,-13.318497,1,1
0.4193449,-27.806845,-13.245573,1,1
0.7721677,-27.813286,-13.177369,1,1
1.1051496,-27.786573,-13.062339,1,1
0.21947578,3.0010772,-32.066624,1,1
0.0998204,3.0500426,-31.803482,1,1
-0.108208455,3.566943,-31.52399,1,1
0.69427395,4.980852,-32.221806,1,1
0.4507757,3.9787135,-33.042698,1,1
0.21857493,3.7123227,-33.26555,1,1
0.065365605,3.545296,-33.33202,1,1
0.34061214,2.8450325,-32.10516,1,1
0.19263613,2.671174,-31.859926,1,1
-0.18513562,2.412466,-31.666542,1,1
-0.30912048,2.3288229,-31.61642,1,1
-0.473839,2.3505344,-31.454561,1,1
-0.68818164,2.3873365,-31.230108,1,1
-8.784606,3.9103081,-31.496836,1,1
1.603225,6.901577,-39.29164,1,1
3.8882995,7.011933,-36.93766,1,1
3.91065,7.0280395,-36.873543,1,1
3.9148207,7.035492,-36.76802,1,1
3.8509552,7.2186484,-36.57655,1,1
3.7216127,7.5512896,-36.58156,1,1
0.44646198,2.9210355,-32.09697,1,1
0.45140877,2.847175,-31.982063,1,1
0.4541995,2.8451881,-31.944862,1,1
0.43129772,2.8716354,-31.885387,1,1
0.35407043,2.9322615,-31.751621,1,1
-0.051457115,3.049615,-31.185266,1,1
-9.091185,4.022586,-31.336401,1,1
-11.566077,5.4336233,-29.222803,1,1
-13.04023,6.097851,-25.564468,1,1
-14.592749,8.979588,-23.919504,1,1
-15.023602,9.562828,-23.735437,1,1
-23.208857,6.054558,-23.35208,1,1
6.3839307,-11.646687,2.1139965,1,1
6.400536,-11.705993,2.003329,1,1
6.3679047,-11.830993,1.7118914,1,1
6.3630877,-11.953747,1.4237878,1,1
6.3526225,-11.995616,1.30094,1,1
-20.625395,3.7905843,-17.840523,1,1
-19.765799,3.9535084,-18.444036,1,1
-19.399935,3.2991989,-17.930363,1,1
-21.244873,3.0282228,-16.447636,1,1
8.246324,-12.9999485,4.751714,1,1
8.920563,-12.32755,4.8728576,1,1
9.591966,-12.549338,5.5362506,1,1
9.621264,-12.55598,5.572124,1,1
9.61663,-12.559831,5.551727,1,1
9.563477,-12.575713,5.4622216,1,1
9.276246,-12.643518,5.075785,1,1
8.894772,-13.181109,4.5578084,1,1
7.9083233,-13.7234745,4.2007856,1,1
7.342481,-14.099867,4.4333377,1,1
-20.516993,-10.702668,-6.9901094,1,1
1.8723146,-4.9891157,-13.905393,1,1
11.349521,-2.0836446,-17.545275,1,1
19.398638,-10.214744,-11.436096,1,1
19.54049,-10.298291,-11.44741,1,1
19.287945,-10.3525715,-11.537496,1,1
19.101292,-10.453841,-11.4205675,1,1
16.1671,-0.5442028,-10.526335,1,1
17.187777,1.2728955,-10.568367,1,1
16.88828,0.97459567,-10.575109,1,1
15.501461,1.0289987,-10.531446,1,1
13.523219,0.29787415,-9.9363165,1,1
9.756173,-1.7405106,-8.726832,1,1
5.1770577,-3.3384635,-10.144537,1,1
-3.901513,-6.590468,-19.791973,0,0
-6.2162523,-8.2052965,-19.877832,0,0
-8.5377445,-10.4422865,-20.170511,0,0
-8.870217,-9.59016,-19.614338,0,0
-8.829107,-9.344391,-19.651545,0,0
-6.736179,-9.258681,-19.568127,0,0
-6.221153,-10.224946,-19.516027,0,0
-6.495202,-11.691575,-20.014385,0,0
-8.226822,-12.568863,-19.57811,0,0
-10.449257,-13.432027,-19.209715,0,0
-12.498859,-12.285663,-19.418036,0,0
-14.732401,-11.272822,-20.08322,0,0
-17.919554,-12.426903,-20.586657,0,0
-20.190197,-13.636996,-21.475492,0,0
-13.118137,-12.6578245,-19.280966,0,0
-10.44957,-13.431941,-19.209806,0,0
-8.226761,-12.56864,-19.577942,0,0
-6.5365148,-10.024323,-19.516933,0,0
-36.965996,7.9002657,-8.496804,0,0
-6.246901,-10.380857,-19.454044,0,0
-6.6751595,-12.128784,-20.10858,0,0
-10.190067,-13.449527,-19.247286,0,0
-8.226831,-12.568874,-19.578129,0,0
-8.226884,-12.5688305,-19.578007,0,0
-10.308719,-13.7318325,-19.133387,0,0
-11.687572,-13.722224,-16.119272,0,0
-10.259285,-9.570936,-12.784088,0,0
-10.459952,-9.47694,-12.32763,0,0
-10.118899,-13.779642,-10.992828,0,0
-10.812278,-18.597317,-12.830765,0,0
-10.712823,-20.564842,-16.749638,0,0
-12.086081,-17.216192,-18.532003,0,0
-13.921109,-16.988588,-18.482029,0,0
-17.033602,-19.378403,-17.733622,0,0
-15.705598,-22.248684,-16.268602,0,0
-14.496365,-20.61968,-17.152672,0,0
-14.724512,-19.54772,-17.518951,0,0
-16.88629,-21.281523,-16.97024,0,0
-20.10749,-26.669254,-13.226045,0,0
-17.909378,-32.416985,-10.370603,0,0
-41.034084,5.858049,-6.0258,0,0
-12.3925705,-16.54794,-18.625963,0,0
-38.60395,7.374962,-7.641551,0,0
-12.086183,-17.216087,-18.531952,0,0
-14.274779,-15.9145155,-18.672329,0,0
-15.1452265,-14.005969,-19.107481,0,0
-14.731379,-12.057262,-19.81736,0,0
-16.857666,-11.349778,-20.719183,0,0
-22.252886,-15.54408,-22.49362,0,0
-24.355211,-19.274677,-19.613092,0,0
-24.835653,-20.72544,-12.217921,0,0
-16.75762,-19.657345,-8.550371,0,0
-12.391325,-16.911179,-8.937905,0,0
-11.3305435,-16.42004,-11.752093,0,0
-12.454053,-21.568245,-16.314474,0,0
-12.285898,-22.348751,-15.472793,0,0
-12.797403,-23.744686,-12.87925,0,0
-12.998787,-22.204243,-15.513873,0,0
-15.512322,-21.005962,-16.15579,0,0
-16.374868,-22.288778,-16.339191,0,0
-21.20291,-24.017778,-15.492492,0,0
-23.255062,-28.961996,-13.60628,0,0
-28.852114,-22.006744,-17.83006,0,0
-31.567722,-19.349178,-20.96178,0,0
-28.83137,-17.663961,-21.048115,0,0
-21.612675,-14.555654,-22.554173,0,0
-21.576065,-10.102544,-20.292229,0,0
-41.23548,7.424235,-8.447982,0,0
-22.08504,-11.4055805,-21.122646,0,0
-25.107101,-17.562696,-22.24175,0,0
-25.980968,-17.09609,-23.034397,0,0
-24.973959,-13.142228,-25.89379,0,0
-24.22896,-12.264826,-22.90714,0,0
-27.280048,-12.387823,-19.025347,0,0
-27.28004,-12.387823,-19.025368,0,0
-27.400368,-10.214725,-18.94202,0,0
-28.032969,-10.119484,-17.968563,0,0
-28.484884,-37.507824,-11.211538,0,0
38.40741,2.7545006,-22.613855,0,0
-20.372593,-38.595436,-8.783378,0,0
-22.512512,-25.332848,-15.164718,0,0
-21.51922,-24.951117,-14.912666,0,0
-25.697168,-11.8148985,-15.24431,0,0
-23.655857,-18.975857,-19.269508,0,0
-25.185484,-17.65784,-22.24916,0,0
-28.831772,-17.664133,-21.049377,0,0
-24.643587,-22.500448,-17.836843,0,0
-22.585743,-21.143381,-17.849897,0,0
-18.299673,-24.414562,-14.206841,0,0
-16.971004,-26.580923,-11.414384,0,0
-15.873002,-27.27204,-9.745943,0,0
-17.906208,-27.793133,-11.288645,0,0
-18.739058,-29.125244,-11.378851,0,0
-18.83952,-27.197918,-12.234497,0,0
-17.542082,-23.552305,-15.306653,0,0
-17.930197,-24.309732,-14.294125,0,0
-21.07187,-24.79651,-14.795842,0,0
-21.687416,-28.016144,-13.412085,0,0
-18.001848,-34.711655,-10.290146,0,0
-35.1337,-18.298185,8.961244,0,0
-36.062794,-22.891277,9.391431,0,0
-15.781121,-33.071186,-6.6384587,0,0
-15.941966,-31.002335,-7.6296377,0,0
-16.028692,-30.611877,-7.9375534,0,0
-41.545254,5.440109,-5.1828084,0,0
-41.389385,5.7382746,-5.9309087,0,0
-26.717186,-22.729353,-18.701822,0,0
-26.802818,-16.578754,-23.825996,0,0
-21.36013,-13.118964,-23.685406,0,0
-17.598703,-12.869835,-20.053488,0,0
-17.168453,-13.935049,-19.314875,0,0
-16.780294,-13.449519,-19.480927,0,0
-17.96849,-13.65792,-19.708267,0,0
-20.19018,-13.63691,-21.474854,0,0
-19.353054,-12.556103,-21.733644,0,0
-40.99621,7.0993824,-7.9534583,0,0
-18.883259,-16.46148,-19.070133,0,0
-19.202623,-18.872185,-18.330246,0,0
-22.940907,-22.331165,-17.26691,0,0
-26.190525,-27.173029,-15.614479,0,0
-26.476852,-36.224476,-12.752444,0,0
-30.742935,-38.47404,-8.571101,0,0
-31.391262,-27.913977,-15.36792,0,0
-31.769644,-23.126839,-20.728626,0,0
-24.42143,-20.76976,-18.58077,0,0
-20.934109,-19.840977,-18.186485,0,0
-19.81591,-16.386478,-19.605816,0,0
-20.190197,-13.636996,-21.475492,0,0
-22.05175,-14.085118,-23.435183,0,0
-19.58664,-12.250738,-22.34373,0,0
-18.694035,-11.184237,-23.161547,0,0
-19.293833,-16.021513,-23.366661,0,0
-19.760138,-17.642181,-18.99984,0,0
-21.2758,-18.421633,-19.34681,0,0
-24.421425,-20.770088,-18.580929,0,0
-28.901072,-22.977245,-19.721996,0,0
-28.901068,-22.977226,-19.721867,0,0
-28.852055,-22.006714,-17.829987,0,0
-28.001696,-8.358566,-18.488895,0,0
-28.368097,-8.118564,-18.898083,0,0
-22.506348,-9.082416,-19.367275,0,0
-15.308728,-5.713894,-19.29605,0,0
-13.858147,-3.4311335,-18.38891,0,0
-13.787728,-3.1676917,-18.361834,0,0
-13.880622,-3.523633,-18.42444,0,0
-15.299396,-5.694533,-19.395985,0,0
-21.488806,-9.351914,-19.88397,0,0
-18.791925,-13.588308,-18.780706,0,0
-15.85295,-13.655941,-18.870197,0,0
-19.285406,-17.776848,-18.778406,0,0
-19.815624,-16.386478,-19.605837,0,0
-20.218798,-16.244503,-19.971802,0,0
-23.535564,-18.083344,-20.879198,0,0
-27.361433,-18.29402,-20.464764,0,0
-30.418564,-23.033325,-20.371092,0,0
-24.42143,-20.769827,-18.579876,0,0
-22.9044,-11.981191,-20.790058,0,0
-22.05175,-14.085118,-23.43518,0,0
-24.613071,-16.260376,-23.278349,0,0
-29.817137,-14.658538,-26.376368,0,0
-44.088593,6.472037,-7.0991063,0,0
-39.728764,-13.426013,-20.297216,0,0
-40.88524,-12.359369,-19.792877,0,0
-33.834858,-13.839096,-22.942167,0,0
-33.746105,-18.412794,-21.272152,0,0
-32.369434,-19.072876,-21.125944,0,0
-31.391392,-27.913553,-15.3684635,0,0
-29.617382,-31.950603,-12.135616,0,0
-29.880247,-27.742266,-15.486188,0,0
-29.880438,-27.742289,-15.486187,0,0
-27.991209,-18.087017,-20.647814,0,0
-22.03884,-12.291719,-25.147896,0,0
-21.328907,-10.894746,-25.737347,0,0
-21.3137,-9.310914,-26.748379,0,0
-21.3137,-9.310914,-26.748379,0,0
-19.805403,-12.034427,-22.831543,0,0
-20.446438,-13.558801,-21.883099,0,0
-21.881208,-15.662429,-22.04067,0,0
-25.98038,-17.096249,-23.034216,0,0
-43.67151,5.6886806,-6.156241,0,0
-43.582718,-23.349508,-1.4174278,0,0
-32.42162,-10.201141,-12.554833,0,0
38.407333,2.7543066,-22.613987,0,0
-37.49061,-12.043188,7.5800395,0,0
-44.977848,-8.9793625,14.110972,0,0
-39.198135,5.558945,15.022038,0,0
-39.728657,-13.425911,-20.297697,0,0
-38.62936,-14.556423,-20.72748,0,0
-30.418564,-23.033325,-20.371092,0,0
-23.275175,-10.729462,-19.24846,0,0
-22.621443,-10.482307,-19.177559,0,0
-21.125883,-12.914576,-21.429417,0,0
-20.19012,-13.636845,-21.474888,0,0
-20.446459,-13.558504,-21.883104,0,0
-21.360119,-13.118954,-23.685406,0,0
-21.006668,-10.7936325,-21.20143,0,0
-19.15835,-11.407407,-22.67607,0,0
-22.573017,-13.572266,-24.249966,0,0
-29.91072,-17.137947,-21.581762,0,0
-35.970383,-23.162237,-20.95475,0,0
-40.07283,-14.41826,-8.951189,0,0
-40.609833,-13.30487,-13.832353,0,0
-43.74887,-21.855898,-9.606115,0,0
-34.94424,-8.58484,-16.06839,0,0
-49.243603,-3.409082,-2.633374,0,0
-49.24393,-3.4090853,-2.6333845,0,0
-39.72884,-13.42587,-20.298018,0,0
-30.048307,-11.299863,-19.768219,0,0
-27.316454,-8.76126,-18.72429,0,0
-26.75121,-9.045878,-18.633978,0,0
-27.695223,-10.092766,-19.03811,0,0
-43.286053,6.2768397,-7.2002273,0,0
-38.620636,-21.325146,-19.973318,0,0
-32.947357,30.919107,18.892063,0,0
-49.24394,-3.4091005,-2.6333842,0,0
-43.74887,-21.855898,-9.606115,0,0
-43.855377,-16.90539,-2.098717,0,0
-23.102747,-37.197342,-9.214528,0,0
-20.450724,-29.036373,-12.609288,0,0
-20.935528,-27.396212,-13.329197,0,0
-20.992552,-29.812742,-12.791621,0,0
-24.423248,-29.638456,-13.5635,0,0
-27.991873,-18.086897,-20.647928,0,0
-25.980335,-17.096241,-23.034218,0,0
-27.73782,-16.055191,-24.649183,0,0
-21.611599,-17.51457,-20.188251,0,0
-21.06427,-17.569609,-19.747143,0,0
-21.946877,-18.250216,-19.825693,0,0
-22.620249,-18.175335,-20.27203,0,0
-24.16474,-17.934752,-21.374374,0,0
-41.77125,6.9042788,-7.8741837,0,0
-22.632849,-11.794299,-20.891287,0,0
-20.87935,-9.060533,-21.7376,0,0
-41.736076,7.721007,-8.728855,0,0
-23.428602,-10.50831,-27.019365,0,0
-26.567163,-10.16673,-27.853767,0,0
-28.748697,-10.855266,-27.443615,0,0
-25.107162,-17.56274,-22.241781,0,0
-24.421316,-20.770124,-18.580893,0,0
-23.825523,-12.376886,-19.088604,0,0
-22.621449,-10.482295,-19.177559,0,0
-24.53277,-10.653992,-18.674107,0,0
-26.460226,-10.503889,-18.303179,0,0
-27.761799,-10.238844,-17.969374,0,0
-27.577711,-10.245328,-18.420809,0,0
-26.92099,-10.34102,-18.839224,0,0
-22.51842,-8.007686,-18.392504,0,0
-22.548306,-7.1501474,-17.994932,0,0
-22.468843,-7.0636544,-17.932125,0,0
-22.51842,-8.007686,-18.392504,0,0
-22.883448,-10.609766,-19.489086,0,0
-42.32169,6.229136,-7.249909,0,0
-25.107086,-17.56274,-22.241785,0,0
-24.072538,-13.81456,-24.919096,0,0
-26.802332,-16.578451,-23.826096,0,0
-31.567722,-19.349178,-20.96178,0,0
-28.677345,-15.589293,-25.391468,0,0
-28.677319,-15.588942,-25.391195,0,0
-23.535559,-18.083315,-20.879185,0,0
-23.738619,-22.439884,-17.483488,0,0
-24.888857,-26.786789,-15.566165,0,0
-23.255062,-28.961992,-13.606316,0,0
-24.422953,-29.639015,-13.562664,0,0
-42.857513,4.7871304,-4.0417333,0,0
-16.758163,-41.287846,-5.035297,0,0
-36.88939,-15.368019,8.597997,0,0
-43.582718,-23.349497,-1.4174165,0,0
-31.834717,-24.384766,-17.979801,0,0
-27.829344,-22.826626,-19.20726,0,0
-28.901085,-22.977203,-19.72191,0,0
-30.418556,-23.033201,-20.372076,0,0
-28.831772,-17.664133,-21.049377,0,0
-31.769644,-23.126839,-20.728626,0,0
-36.19481,-27.209625,-14.042508,0,0
-29.617397,-31.950727,-12.13579,0,0
-26.799503,-24.604748,-16.25042,0,0
-24.465979,-24.426357,-16.171309,0,0
-24.423248,-29.638456,-13.5635,0,0
-21.649364,-35.030403,-10.741223,0,0
-36.033176,-17.149042,8.992437,0,0
-36.062862,-22.891043,9.390645,0,0
-36.88931,-15.368156,8.598129,0,0
38.43243,1.2290998,-24.852291,0,0
-23.209547,-32.70093,-13.299875,0,0
-23.965277,-26.29531,-15.432026,0,0
-24.465977,-24.426353,-16.17131,0,0
-24.888828,-26.786833,-15.566359,0,0
-22.345446,-36.238388,-10.020891,0,0
-25.414366,-39.26221,-6.102467,0,0
36.029617,1.0794683,-27.730831,0,0
-38.073814,-32.40395,-6.7744336,0,0
-45.034554,5.870931,-5.5721245,0,0
-27.790762,-12.31489,-19.144524,0,0
-17.086,-9.499585,-21.233429,0,0
-14.009332,-8.37973,-22.083738,0,0
-13.758954,-8.445989,-21.772844,0,0
-14.251624,-8.336174,-22.368925,0,0
-17.81989,-9.99231,-22.8775,0,0
-24.072538,-13.81456,-24.919096,0,0
-33.679863,-23.304916,-20.92928,0,0
-27.448032,-27.387676,-15.5797205,0,0
-23.255062,-28.961992,-13.606316,0,0
-23.965054,-26.294878,-15.431951,0,0
-24.888805,-26.786728,-15.566278,0,0
-26.799595,-24.604744,-16.250462,0,0
-25.107178,-17.563072,-22.24177,0,0
-21.484251,-11.055657,-21.331972,0,0
-18.834648,-10.419957,-23.275385,0,0
-20.11154,-11.969358,-23.338877,0,0
-24.973812,-13.14227,-25.893785,0,0
-38.620632,-21.325146,-19.973305,0,0
-43.73708,-16.91669,4.856791,0,0
-19.550165,-38.981556,-8.521177,0,0
-19.550095,-38.981636,-8.5211735,0,0
-37.29537,-21.946337,7.6143928,0,0
-43.31327,5.327316,1.4824759,0,0
27.619822,-21.20387,23.017572,0,0
-44.977856,-8.9793625,14.1109705,0,0
-34.90664,-7.366882,-9.966908,0,0
-35.156845,-7.7975535,-10.736894,0,0
-33.902676,-6.556095,-13.7143345,0,0
-43.748905,-21.85594,-9.606098,0,0
-38.20423,-25.961388,-12.923018,0,0
-33.75312,-27.856657,-14.865427,0,0
-4.710739,-13.9412365,-15.53665,1,1
7.386178,-4.98728,-23.363195,1,1
7.3865623,-5.0605507,-23.284277,1,1
7.2915187,-6.279445,-22.36648,1,1
4.066257,-14.372401,-14.482596,1,1
-1.9355501,-16.133894,-15.108269,1,1
-4.276639,-15.769301,-15.11886,1,1
-4.543,-16.025045,-14.933433,1,1
-4.6848993,-16.539064,-14.57893,1,1
-4.7479577,-18.707973,-12.71251,1,1
-4.9237347,-20.14607,-11.923586,1,1
-5.7714853,-20.420395,-14.247533,1,1
-2.6572952,-16.37966,-17.109495,1,1
-3.2000632,-14.918879,-18.286804,1,1
-28.674757,-0.7408824,-23.60071,1,1
-28.592402,-0.65753007,-23.71984,1,1
-28.530045,-0.5882408,-23.810823,1,1
-28.430567,-0.46493435,-23.980566,1,1
-28.195465,-0.017785927,-24.292227,1,1
-11.568561,10.611343,-24.39851,1,1
-11.553508,10.629884,-24.424429,1,1
7.777623,6.973115,-23.683523,1,1
7.9264994,6.8011374,-23.533588,1,1
8.088091,6.019548,-23.011917,1,1
8.042718,5.784416,-22.85368,1,1
17.409195,-12.570714,-16.177866,1,1
17.54528,-12.661481,-15.915188,1,1
17.50937,-12.70888,-15.767524,1,1
17.340305,-12.691926,-15.832724,1,1
17.200157,-12.634991,-15.961299,1,1
17.144873,-12.606941,-16.017542,1,1
10.87943,4.860765,-21.111002,1,1
11.078396,4.659137,-21.235565,1,1
26.085829,-8.096577,-6.6423883,1,1
26.247238,-8.933314,-5.6089425,1,1
26.248884,-9.129125,-5.3144193,1,1
26.26453,-9.123108,-5.162461,1,1
26.251986,-9.169862,-5.0676484,1,1
22.789017,-19.90378,-14.51869,1,1
22.742191,-19.941217,-14.5651,1,1
22.63767,-20.044268,-14.635358,1,1
21.856474,-20.910603,-14.908323,1,1
21.530132,-21.367563,-14.753844,1,1
21.49023,-21.486994,-14.709914,1,1
21.347174,-22.11684,-14.229797,1,1
21.247187,-22.448381,-14.026281,1,1
21.188055,-22.543966,-14.086921,1,1
21.127983,-22.615007,-14.211967,1,1
21.116241,-22.477385,-14.369173,1,1
21.175867,-22.210909,-14.494601,1,1
21.402222,-21.689484,-14.660762,1,1
21.574823,-21.419722,-14.858408,1,1
21.727749,-21.198723,-15.137533,1,1
21.788452,-21.068762,-15.263835,1,1
21.839012,-20.970932,-15.2392025,1,1
21.844046,-20.976557,-15.171049,1,1
21.616068,-21.31957,-14.942959,1,1
21.38389,-21.686956,-14.807727,1,1
20.919725,-22.934874,-14.499593,1,1
20.950905,-23.441566,-14.408571,1,1
20.869545,-23.65596,-14.550147,1,1
20.793785,-23.678291,-14.775783,1,1
20.701187,-23.632978,-15.201116,1,1
20.629744,-23.619257,-15.874821,1,1
20.610868,-23.625368,-16.049992,1,1
20.609539,-23.63103,-16.102503,1,1
20.617348,-23.631561,-16.131615,1,1
20.630579,-23.619307,-16.12642,1,1
20.595743,-23.648212,-16.17661,1,1
20.575163,-23.687319,-16.241405,1,1
-3.9537878,-28.111496,-7.852316,1,1
-3.735204,-28.128828,-7.8212323,1,1
-3.6954,-28.12056,-7.8057017,1,1
-3.7345006,-28.08825,-7.822151,1,1
-3.811638,-27.947449,-7.875082,1,1
-3.814124,-27.916952,-7.8764777,1,1
-3.7080898,-27.900623,-7.923276,1,1
-3.6627586,-27.888323,-7.970667,1,1
-3.6539052,-27.892944,-7.9921455,1,1
-3.605461,-27.96566,-7.9976764,1,1
-3.5448596,-27.997229,-8.021144,1,1
-3.594404,-27.911386,-7.9098053,1,1
-3.5869913,-27.864643,-7.908363,1,1
-3.6046805,-27.801573,-7.8944645,1,1
-3.5386279,-27.828081,-7.798686,1,1
-3.3329117,-27.844746,-7.62301,1,1
-3.2738063,-27.907585,-7.591135,1,1
-3.3804915,-28.150925,-7.6715693,1,1
-3.3673704,-28.336586,-7.6272283,1,1
-3.3081257,-28.415382,-7.5780807,1,1
-3.1978416,-28.569876,-7.4564066,1,1
-3.174472,-28.728266,-7.44213,1,1
-3.1642828,-28.987562,-7.4958854,1,1
-3.1853585,-29.141441,-7.5543556,1,1
-3.183267,-29.268063,-7.629246,1,1
-3.1507728,-29.238024,-7.6492443,1,1
-3.0961757,-29.163414,-7.6600175,1,1
-1.9770595,-28.201431,-6.933532,1,1
-1.6119541,-27.972948,-6.622612,1,1
-1.5909883,-27.976908,-6.5955596,1,1
-1.6113867,-27.97079,-6.6327405,1,1
-1.644887,-27.98946,-6.65162,1,1
-1.680983,-28.043629,-6.6402674,1,1
-1.8107648,-28.146221,-6.673424,1,1
-2.1027946,-28.28252,-6.917229,1,1
-2.5698805,-28.493153,-7.418845,1,1
-2.6578789,-28.608496,-7.5629616,1,1
-2.634156,-28.615177,-7.4738073,1,1
-1.88672,-28.198576,-6.8191996,1,1
-1.6363581,-28.080679,-6.6164045,1,1
-1.5916351,-28.032007,-6.5804024,1,1
-1.6119078,-28.036173,-6.580612,1,1
-1.6894735,-28.059477,-6.605316,1,1
-1.7475479,-28.036737,-6.7157125,1,1
-1.7383385,-27.98663,-6.771749,1,1
-1.7785457,-27.957678,-6.837538,1,1
-1.9201279,-27.834204,-6.894501,1,1
-2.315847,-27.571377,-7.0643506,1,1
-2.4302824,-27.223938,-7.0950356,1,1
3.178364,-1.4909656,22.435137,1,1
3.5423667,-1.1987877,22.483475,1,1
3.953023,-0.9335348,22.47304,1,1
4.159997,-0.7707817,22.490726,1,1
4.2139225,-0.7374171,22.49596,1,1
4.3076444,-0.7090344,22.497082,1,1
4.6441774,-0.5523273,22.545912,1,1
5.2275815,-0.27662203,22.660418,1,1
5.620252,-0.09468342,22.744694,1,1
5.716368,-0.051271256,22.76425,1,1
5.762488,-0.030270727,22.777184,1,1
5.814597,-0.007794205,22.787035,1,1
5.840898,0.0034299905,22.79146,1,1
5.831001,-0.0025425884,22.782333,1,1
5.8143525,-0.011166192,22.771408,1,1
5.806272,-0.016113454,22.764624,1,1
5.8331614,-0.006490539,22.760187,1,1
5.8655105,0.002452954,22.749998,1,1
-9.206489,-29.16141,-22.624256,1,1
-9.191469,-29.200514,-22.589705,1,1
-9.181794,-29.233875,-22.559649,1,1
-9.184904,-29.23299,-22.55555,1,1
-9.178828,-29.258707,-22.53123,1,1
-9.165861,-29.337069,-22.454674,1,1
-9.138376,-29.487677,-22.301826,1,1
-9.080882,-29.724508,-22.086609,1,1
-8.891078,-30.169022,-21.832174,1,1
-8.713816,-30.50017,-21.701115,1,1
-8.693885,-30.47136,-21.50578,1,1
-8.675793,-30.39323,-21.104918,1,1
-8.669897,-30.333696,-20.837196,1,1
-8.677224,-30.298443,-20.703787,1,1
-8.7229,-30.29022,-20.806087,1,1
-8.74146,-30.295744,-20.96217,1,1
-8.779685,-30.266962,-21.104837,1,1
-8.888391,-30.108866,-21.3348,1,1
-8.924917,-30.046425,-21.385632,1,1
-8.923819,-30.046322,-21.398298,1,1
-8.91037,-30.056831,-21.42271,1,1
-8.870322,-30.117573,-21.402617,1,1
-8.856633,-30.136744,-21.388742,1,1
-8.681141,-30.275822,-21.363527,1,1
-7.912702,-30.732065,-21.940397,1,1
-7.0936465,-31.301311,-23.014633,1,1
-7.0049872,-31.430883,-23.112673,1,1
-7.0816803,-31.295492,-22.87608,1,1
-7.3770647,-30.96366,-22.23447,1,1
-7.7268834,-30.683796,-21.570894,1,1
-8.05985,-30.518265,-21.122763,1,1
-8.304055,-30.420824,-20.859612,1,1
-8.357562,-30.364824,-20.670654,1,1
-8.360931,-30.302034,-20.375513,1,1
-5.9848475,-28.622524,-13.397177,1,1
-5.867554,-28.571444,-13.245392,1,1
-5.7783813,-28.530098,-13.1407585,1,1
-5.6997523,-28.492708,-13.049405,1,1
-5.714968,-28.494051,-13.0555105,1,1
-5.6765265,-28.48963,-13.031343,1,1
-5.5896654,-28.463913,-12.951121,1,1
-5.5480523,-28.444187,-12.897108,1,1
-5.526989,-28.435234,-12.867796,1,1
-5.46331,-28.431995,-12.838247,1,1
-5.3746467,-28.427683,-12.789586,1,1
-5.2717695,-28.401674,-12.731113,1,1
-5.1153436,-28.339697,-12.641858,1,1
-5.0159936,-28.28284,-12.581177,1,1
-5.006955,-28.267506,-12.57298,1,1
-5.0612187,-28.298141,-12.60359,1,1
-5.052446,-28.303474,-12.599555,1,1
-5.0063853,-28.291601,-12.574108,1,1
-4.9062877,-28.258852,-12.523676,1,1
-4.57571,-28.131695,-12.376399,1,1
-2.7998548,-26.982433,-11.734618,1,1
-2.430927,-26.570768,-11.642928,1,1
-2.2184355,-26.294281,-11.623038,1,1
-2.1203063,-26.176474,-11.616692,1,1
-1.9592133,-25.995918,-11.607992,1,1
-1.6707398,-25.657423,-11.591852,1,1
-1.4599931,-25.39783,-11.583715,1,1
-1.3301142,-25.238562,-11.585299,1,1
-1.2766856,-25.161709,-11.557339,1,1
-1.2442707,-25.116144,-11.526103,1,1
-1.2691108,-25.097548,-11.517969,1,1
-1.2853189,-25.113314,-11.52867,1,1
-1.2695416,-25.134432,-11.574429,1,1
-1.1378777,-25.014465,-11.636239,1,1
-1.0121912,-24.9736,-11.706113,1,1
-1.0955997,-25.174456,-11.931119,1,1
-0.8884608,-25.306753,-12.601979,1,1
-0.7006043,-25.298168,-12.983516,1,1
-0.43806988,-24.94456,-13.282477,1,1
-0.7549695,-24.62489,-13.744563,1,1
-1.1242275,-24.748644,-14.006293,1,1
-1.1461143,-24.768969,-14.008681,1,1
-1.1242687,-25.073858,-14.033559,1,1
-1.042089,-25.477066,-14.037008,1,1
-0.9620751,-25.530558,-14.013431,1,1
-0.778173,-25.386436,-13.924723,1,1
-0.21350192,-24.57149,-13.812818,1,1
-1.8512268,1.445165,-32.510445,1,1
-0.15994197,-24.22837,-13.621076,1,1
-0.18155596,-24.234316,-13.566861,1,1
-0.2990952,-24.312191,-13.540146,1,1
-0.4040888,-24.445166,-13.564746,1,1
-0.30826804,-24.358574,-13.592467,1,1
-0.22014204,-24.280546,-13.589932,1,1
-1.7040894,0.51133734,-31.655563,1,1
-1.9506042,0.41023546,-31.732306,1,1
-2.027534,0.07235753,-31.696892,1,1
-1.9762883,-0.06647658,-31.551012,1,1
-1.7617365,-0.7748651,-31.23639,1,1
-1.7810073,-1.110731,-31.054625,1,1
-1.944052,-1.2838681,-30.88037,1,1
-2.1292908,-1.2295371,-30.850954,1,1
-3.084789,-0.0021407877,-31.80125,1,1
-3.1135786,0.26795506,-32.142586,1,1
-3.1504989,0.18391557,-32.161182,1,1
-2.4401262,-0.4197427,-31.96353,1,1
-2.2921412,-0.7705277,-31.62252,1,1
-2.514267,-0.9707906,-31.486141,1,1
-2.6855912,-1.0274229,-31.461496,1,1
-2.8708546,0.25150195,-31.883871,1,1
-0.79067063,3.0095415,-33.581364,1,1
-0.5987718,3.2001667,-33.658283,1,1
-0.5401639,3.2681415,-33.66342,1,1
-0.5714874,3.380912,-33.736187,1,1
-7.778974,3.50167,-31.602133,1,1
0.22325975,13.679593,-27.33743,1,1
0.24840984,13.68981,-25.941227,1,1
0.49569222,13.590828,-25.457071,1,1
-2.2554681,-0.62385523,-31.701921,1,1
-1.9331689,-0.42430326,-31.57807,1,1
-1.9223561,-0.19309887,-31.615116,1,1
-2.1831162,-0.08829023,-31.708738,1,1
-3.115454,0.37453523,-31.920628,1,1
-3.5483673,0.5358202,-31.860716,1,1
-3.7640364,0.54590714,-31.780676,1,1
-10.231669,5.7581778,-24.238386,1,1
-10.281489,5.779267,-24.090746,1,1
-10.533719,5.916733,-23.810051,1,1
-11.21593,5.254886,-23.399815,1,1
-11.520019,5.0233154,-23.307106,1,1
-12.227342,4.222121,-23.38967,1,1
-12.184402,3.9180245,-23.564154,1,1
-12.108136,3.9027827,-23.559149,1,1
-11.813918,3.9920146,-23.422045,1,1
-11.804247,4.14713,-22.527784,1,1
-11.48131,4.5092416,-22.348625,1,1
-11.637311,4.362021,-22.279861,1,1
-11.835496,4.2133904,-22.267271,1,1
-12.381512,3.645894,-21.869078,1,1
-19.807213,4.14093,-18.666046,1,1
-20.706917,2.8227975,-16.048285,1,1
-21.072203,3.6856103,-17.510328,1,1
-21.883852,2.3918,-14.950488,1,1
-22.636148,2.4953103,-11.511946,1,1
-21.474632,2.2724714,-11.970819,1,1
-19.137527,3.1905978,-18.015099,1,1
-20.253351,8.482105,-20.322355,1,1
-18.995157,9.829441,-19.827204,1,1
-18.03625,10.912409,-18.354357,1,1
-18.339186,8.703935,-13.439604,1,1
-14.242093,10.573284,-15.4552765,1,1
-12.023974,10.896112,-11.812795,1,1
-12.35223,10.875213,-11.589756,1,1
4.716024,-3.1110277,-5.893573,1,1
11.267853,4.432934,-16.341162,1,1
12.404266,3.2612426,-16.346737,1,1
12.506244,3.068282,-16.392954,1,1
12.543964,-1.3384753,-12.921119,1,1
10.068202,-2.7642128,-11.79084,1,1
15.099953,-1.0147732,-11.723857,1,1
19.926365,-0.3012767,-12.143038,1,1
21.727184,-0.13386199,-12.340327,1,1
21.13418,-0.47474518,-12.508188,1,1
19.122057,-0.97307545,-12.520744,1,1
16.180687,-0.95286787,-12.22417,1,1
13.925893,-1.2061954,-12.800744,1,1
12.0736685,-1.4620376,-13.602622,1,1
8.060369,-2.5523548,-10.375121,1,1
5.263993,-4.6532254,-10.683647,1,1
2.6666405,-6.481708,-11.947865,1,1
-0.18545099,-9.018254,-11.987488,1,1
-4.5185957,-12.553145,-11.1035,1,1
-8.188764,-13.957196,-9.835313,1,1
-25.199224,-35.064327,-13.371909,0,0
-28.484783,-37.507847,-11.211541,0,0
-31.387346,-32.46078,-11.396552,0,0
-31.391405,-27.913479,-15.3682575,0,0
-33.67983,-23.304996,-20.92957,0,0
-25.106989,-17.562695,-22.241755,0,0
-27.280008,-12.387766,-19.025152,0,0
-27.82933,-22.826689,-19.207258,0,0
-28.089428,-12.410371,-18.533604,0,0
-28.269276,-12.211515,-19.27372,0,0
-28.677303,-15.589176,-25.391296,0,0
-35.97043,-23.162067,-20.95477,0,0
-26.778608,-30.767756,-13.028258,0,0
-21.649364,-35.030403,-10.741223,0,0
-16.539055,-35.456818,-8.139373,0,0
-16.53142,-37.963867,-7.163024,0,0
-32.19959,-10.160458,-11.966056,0,0
-24.324398,-31.070515,-11.121678,0,0
-22.275417,-29.019016,-11.282288,0,0
-20.450523,-29.036827,-12.60947,0,0
-19.137985,-29.850885,-11.453903,0,0
-17.640495,-30.965858,-10.831556,0,0
-24.88855,-26.786713,-15.566415,0,0
-22.468676,-10.510244,-20.265337,0,0
-22.524107,-10.487666,-20.886675,0,0
-21.611649,-14.556011,-22.554527,0,0
